time ch1 ch2 ch3 ch4 ch5 ch6 ch7 ch8 label
0 7.019700181577642e-06 -3.58560760302453e-05 1.8761279895161432e-05 2.3514117909780347e-05 -4.877587971634591e-05 -3.2554487671557955e-05 3.1960100791821343e-06 -7.906064808589556e-06 1
1 -4.107588723647272e-06 2.9097808601588806e-06 2.1984949371570715e-05 1.944479838572371e-05 1.6507674390304012e-06 2.8181030174200822e-05 1.168773355630114e-05 -2.1482311572080956e-05 1
2 2.8520183213048382e-05 -5.56321739689078e-06 2.1961257532681814e-05 -1.2481477746563225e-06 -4.6215590886315145e-06 -1.7023238610098534e-05 3.056353346685076e-05 -3.863237051720054e-06 1
3 7.006996239705379e-06 2.6718200267762708e-05 1.3307729638833718e-05 9.136101609101958e-06 1.031831528989971e-05 1.0770525075197069e-05 5.354119002176153e-05 -1.0160375409615389e-05 1
4 5.688568384318749e-06 -6.958358377820826e-06 1.5399485564387393e-05 2.822430731802229e-05 -2.848686441371877e-06 -2.10039119240632e-05 -2.061203039228099e-05 1.6264819695617526e-05 1
5 4.0109321654499244e-05 -4.60013694162524e-06 -1.6637742682217358e-05 5.804033076667995e-06 2.9171452285182056e-06 5.4672149182253235e-06 2.1785719448704746e-05 5.589888719367057e-06 1
6 3.428576300549311e-05 5.248662371836201e-07 7.227984967249604e-06 1.578220564596351e-05 -3.6428895496391664e-05 -7.991780408932534e-06 -1.1759316357319888e-05 -1.5971946206083548e-05 1
7 -4.476955717151134e-06 1.469434993977226e-05 -2.1645777892331083e-05 2.420695886478702e-05 -4.207174429039512e-05 -8.372125749644371e-06 4.06882662762514e-06 1.4655558283981954e-05 1
8 1.0425692882260003e-05 -4.30446505469078e-06 -8.71812680621094e-06 -1.155879481661418e-05 2.1449397031428846e-05 -4.782608122040372e-06 -3.189215808344805e-05 -2.8332180350087016e-05 1
9 -1.66951737384326e-05 -1.7349319977704875e-05 3.5606434017641313e-06 1.7262133851694206e-05 -1.0681316158413356e-05 3.963492276917856e-06 1.563975984918342e-05 -7.733663493005961e-06 1
10 4.108121104671959e-06 -4.966550412735771e-06 -9.076346164126795e-06 -9.543447349958228e-06 -2.9895991139725994e-05 1.2174312019639546e-05 -1.1735058505068097e-05 3.123529681921858e-07 1
11 -3.663742752049866e-07 1.3647282882542782e-05 1.6634627724319658e-05 -2.4621371127355906e-06 -1.0582457801103844e-05 -1.9929552726599765e-06 -4.218336084895075e-05 -3.6177811810577186e-05 1
12 -5.002492502286556e-05 8.185468567605659e-06 9.994355668085915e-06 -2.263697638400152e-05 -9.454063850984742e-06 3.2480707444651634e-05 -8.906599276535648e-06 1.8437889211677164e-05 1
13 -4.5792868826353755e-05 1.1454120140587175e-05 -2.375055137276453e-05 -8.475826897514062e-06 2.100770343643489e-05 -4.318301057980872e-05 1.0860591088646434e-05 5.943390058306948e-06 1
14 -7.749591883775109e-06 -2.8428910868287676e-05 1.8032376928467378e-06 -1.3237317726595061e-05 5.816905283867599e-06 5.46303638086072e-07 4.004447228302289e-05 -5.983890686825607e-06 1
15 -1.925649823694254e-05 2.4679578948810247e-05 5.49991709929413e-06 3.3979689381010916e-05 2.0877781147864465e-05 8.921776478737734e-06 3.6582572280489046e-05 -2.9719076358071275e-05 1
16 -8.671119488727908e-06 -2.945921675519836e-05 -9.7452450788942e-06 -3.441715368890772e-05 1.587877367036011e-05 -5.5555674274693345e-06 -3.677015736256645e-05 -2.538947703018854e-05 1
17 2.4319672254484846e-05 4.0943525709756615e-06 4.991827229229467e-05 7.284656165018324e-05 1.036023583189991e-05 -2.4738453000796606e-05 -5.330115701828273e-05 6.6927865585958956e-06 1
18 -8.741733692215142e-06 -4.436372966613675e-05 -1.5302419976495204e-05 -3.519772160409632e-06 2.664950576969109e-05 3.926214186133615e-06 -3.965870925967208e-06 -2.589134382064529e-05 1
19 -1.1665840328745198e-05 -3.5315276515993876e-05 -1.3445637704580124e-06 4.419824783949707e-05 3.256863036822146e-06 2.456848777557644e-05 -1.2482389963478803e-05 -2.9623594160425617e-05 1
20 -2.9559255388020843e-06 -2.319269858477363e-05 5.321174331087911e-05 -2.0534666980609656e-05 2.0962230093408624e-05 -2.257317945217566e-05 2.3289325321856104e-05 9.623774152646579e-06 1
21 4.246893021090193e-06 -1.0729859055036264e-05 -1.636969238573476e-05 1.1151805037052014e-05 -1.13745870085195e-05 -3.0640144094181206e-05 -3.1948439357990487e-05 4.314697943052987e-06 1
22 3.616540661779847e-05 1.3430850767237324e-05 -2.9659581527470643e-06 7.145653490063572e-06 3.265004354267062e-05 5.484562534096409e-06 -1.027318077084343e-05 2.7657217751497223e-05 1
23 -7.724398498881563e-06 5.533611928408833e-05 4.580860930547653e-06 -3.0611725793012505e-05 -3.420397998114162e-05 4.127319830578124e-05 4.309164301958243e-05 -4.487980332065016e-06 1
24 -4.915637161013779e-05 5.716413901702524e-05 -2.76761420510872e-05 -2.236817547389566e-05 1.6083169867226112e-05 -9.86512807148974e-06 -1.2804666800178242e-07 -4.086072463112815e-06 1
25 -2.7240196152783452e-05 6.16293239392987e-05 2.264622672543639e-06 1.6098469831921446e-05 -5.125430252577556e-05 -1.2179600482529488e-06 -2.108075675732178e-05 -3.04703265105907e-05 1
26 -5.020764835451142e-05 -1.2233609539687275e-05 2.289756355890033e-05 -3.31598179434891e-05 7.657873148604362e-07 -1.2104235833339463e-05 -8.191827359049022e-06 2.5068945632615104e-05 1
27 -1.1693238317074001e-05 1.33556784527209e-05 -3.862641981247512e-06 -1.7398565291767577e-05 -5.596470422012488e-06 6.06241978178054e-06 4.414333961342776e-06 -2.7109701805834164e-05 1
28 -3.396687318599406e-06 1.2326128395452199e-05 6.293685093834802e-05 4.692111528204175e-05 -2.13310837639705e-05 -7.184584038729403e-06 -3.658605004592508e-05 -1.4767675349087163e-05 1
29 1.6759729214943237e-05 4.693438881104555e-06 -1.8227095943590214e-05 -1.6353661001694915e-05 -5.368222574346637e-05 -4.066648013622692e-06 -2.656036029648908e-05 -1.3235985684151844e-05 1
30 -1.3225880623720375e-05 -1.8124718573564032e-05 -4.394320978391579e-05 -3.6676131134774764e-05 5.323117780070745e-05 -3.2185564531850775e-05 -2.7419639461365993e-05 4.5922838208032855e-05 1
31 0.00010411863430237517 -3.447624875208572e-05 -9.206223919700764e-06 8.538888773512738e-06 4.321744111013981e-05 -2.4671426960705938e-05 -6.131946148552744e-06 1.94334394015436e-05 1
32 2.4667661575013542e-05 -8.761321428004943e-07 -3.3455741129010287e-06 -3.4372395209249545e-05 -5.954343599366631e-06 -6.6596872502238785e-06 5.804247240656399e-06 -1.3883180470475402e-05 1
33 3.227941721516972e-05 4.634405394662763e-05 3.885733191711651e-06 8.793910209980087e-06 1.3288836894466842e-06 2.1098272853545107e-09 -1.8038950838571188e-05 7.9123565418327e-06 1
34 1.5051434870549898e-05 8.356750923796104e-05 3.9333872561881064e-05 9.64616381391252e-06 -1.907643024236919e-05 -2.781028679958545e-05 2.977857382722163e-05 6.568730628678462e-06 1
35 3.368743487619567e-05 -2.361475157463713e-05 2.318596203895452e-05 1.1360508455359074e-05 -2.7760767110361952e-05 -1.1788120186248724e-05 6.59293010891299e-06 1.3116699589060908e-06 1
36 -4.766122325375994e-06 1.2339440951092832e-05 -6.299434455172134e-06 3.8140628025617146e-06 3.6787299324828926e-05 -6.416646102328244e-05 -5.921256612742106e-06 4.412810534311174e-06 1
37 5.990526058399346e-07 -8.062282906711109e-06 -4.391804456196457e-05 8.199887092852741e-06 4.3183755354104626e-05 -3.834653512290344e-05 2.159570034245471e-05 -8.213130578072348e-06 1
38 -3.4376019363970216e-05 -4.359894475371288e-05 -8.361404308896917e-06 3.2501114867473964e-05 1.4566381049692677e-05 4.33077901352486e-05 2.9435297224442343e-05 1.0977166973239405e-05 1
39 1.3134626821970847e-05 -7.93316901679749e-06 2.0699704419926476e-05 -7.414273838367709e-06 1.6636453964801207e-06 -1.7435595582506922e-05 2.4739598364871328e-05 -2.945759057787164e-05 1
40 7.853482384311385e-06 -1.1587970322061103e-05 2.9281177336682986e-05 1.8771724718281497e-05 4.551615394117004e-05 1.826936727846612e-05 -3.9301006391331016e-05 -1.673829322455021e-06 1
41 -6.970051346644234e-05 -3.079540814568298e-05 3.778071083191804e-05 1.59383452724424e-05 -1.747326071446866e-05 -2.5342934161009973e-05 8.195523219065199e-07 -3.0414003734528197e-05 1
42 -1.6296642246749243e-05 3.970716791158666e-05 2.8882800902667407e-05 1.5219036805610994e-05 -5.7282237714952504e-05 7.6091682257564955e-06 1.8008393308144481e-06 1.0347257134317327e-05 1
43 4.160695324476366e-05 -3.851978827075946e-05 -1.477758562977764e-05 1.4772658069833867e-05 -3.953985998634856e-05 3.689872620133772e-05 9.20891531751646e-06 2.1164599646085102e-05 1
44 -1.5628054880717457e-05 3.9860755418495364e-05 2.671178889972596e-05 5.821950503429209e-06 5.860022317467399e-06 6.758580982043148e-06 -2.158363161848454e-05 -3.6882170060088233e-06 1
45 2.8213437317882416e-06 1.7142772844420608e-05 2.4995606172757365e-05 -2.6463402049460233e-05 -3.125225757989441e-06 3.7036388691474334e-05 -1.8589705720314104e-05 -2.0556250432258008e-05 1
46 4.507122416242837e-05 1.8573372173989516e-05 2.856513890164833e-07 3.3224014760924734e-05 2.1419849564163173e-05 2.1045501672251547e-05 1.3852912533102332e-05 5.819132750865213e-05 1
47 3.22497151910134e-05 -4.482972597153304e-05 4.010635903792852e-05 -1.1442485773920641e-05 2.697011108575826e-06 3.2738767121513174e-05 -4.005648852647314e-05 -3.129118035265349e-05 1
48 -2.0074673378811642e-05 -1.3882956672209045e-05 1.099091515042484e-05 1.3104696070319275e-05 6.906854483213844e-06 -3.5319147097309165e-05 -5.775258591581611e-05 1.3588396347595567e-06 1
49 4.634799493324864e-06 -1.727023526040385e-05 1.7548840655531754e-05 3.4560358014670482e-06 1.9003327134396345e-05 5.7302843528767104e-06 1.3251617640036667e-05 -1.7616831571747062e-05 1
50 -4.784624003437445e-06 -1.2841034192226925e-05 2.051321188543547e-05 -9.843529305614303e-06 1.3029181393302817e-05 -6.645969797884476e-06 -2.938554183203259e-06 2.0737976050601828e-05 1
51 -5.242901520144779e-05 -4.200658579429176e-05 -3.705463493607052e-05 -5.834040299620762e-05 -1.695661100387942e-05 1.8735847493193512e-05 -7.122101659564369e-06 4.944752048546303e-06 1
52 7.100387845478921e-06 4.5100171921159456e-05 -1.7284483681534889e-06 3.383964723923493e-05 2.3031664608527302e-06 -2.0934955595686554e-05 -1.4860008804968382e-05 -3.701341281412541e-05 1
53 -4.3379393202752644e-05 2.8244203912041325e-05 2.008962548446504e-05 4.30192457791496e-05 -3.4554537884426e-05 9.820686706497975e-06 -2.601359847893836e-05 1.186742721158005e-05 1
54 -8.803952432190851e-06 -7.732805725040167e-06 2.320742478921211e-05 -1.5125017820218276e-05 -1.3347505959338866e-05 -2.6743810282242247e-05 -1.635708191718889e-05 1.069726101737293e-05 1
55 -2.817094907706177e-05 2.838117296929098e-05 9.048046348221092e-06 3.3016541388204175e-05 -8.569653771609483e-06 -3.6921445421143296e-05 2.6680560414299577e-05 -8.287204302431367e-06 1
56 2.4475612441705896e-07 2.9095616866066686e-05 -3.278438255083623e-06 8.719397351157378e-06 4.8775314003157494e-05 5.192451322634383e-05 1.7345283783194677e-06 4.004764832926882e-06 1
57 4.671792007037908e-06 -1.408849216109241e-05 8.326759315456378e-06 -6.465711988464101e-07 7.847705286438841e-06 -2.0834220148735146e-05 -3.973918733272422e-05 -5.1824585899782294e-05 1
58 -2.501801621002926e-05 -2.4699075983108184e-05 -7.329789666219046e-06 4.843077906073793e-05 2.7649834247682453e-05 -2.4052277908540682e-05 8.692711311273924e-06 -1.0176955908758128e-05 1
59 -3.105117988562166e-06 -2.8590080195162603e-05 1.5479277924384833e-05 -8.481462097100384e-06 2.6596288318358965e-05 -2.85484556535601e-05 1.5847655905671106e-07 6.494184316489581e-05 1
60 2.7515651111841086e-05 4.237993873492654e-06 2.2880044543302046e-06 1.4519427383244918e-05 -1.4195798598172884e-06 -4.260189529105111e-06 -1.948705991813549e-05 1.075753397393883e-05 1
61 -1.3736024041559944e-05 1.1590866778320384e-05 2.713217511114775e-05 9.163285180930749e-06 -7.156218338892297e-06 1.1349139482717403e-05 -7.716826388660316e-06 2.3388678136628734e-05 1
62 -1.526241009300139e-05 6.051902038283837e-07 -4.9770299878099945e-05 -3.737652075568013e-05 3.409655574534774e-05 2.237962454929215e-05 -1.798700583211976e-05 -3.756258640102242e-05 1
63 -6.562493203019272e-05 -4.839795284587231e-06 6.0510375306185064e-05 1.0872106786591185e-05 -1.3989307151237239e-05 1.1627005237507657e-05 -3.902395882486107e-05 -7.433084067440886e-06 1
64 1.3926158956140819e-05 2.1840807250350666e-05 1.9770153042252017e-05 8.61613065590131e-06 1.6708150452699923e-05 -1.7209307055768985e-05 2.2445385210263704e-05 4.0723423690599785e-05 1
65 -2.6865268461682617e-05 1.415196255743186e-05 3.3394608408005825e-05 -4.783599667376507e-06 3.509553480166393e-05 -1.1063392797304598e-05 3.6376139406767785e-05 3.287145420136305e-06 1
66 1.400577205334818e-05 4.075662340045037e-05 -9.044261936104282e-06 -2.352805239812396e-05 -1.1214105200708858e-05 1.1308348766078467e-05 -3.914397680451286e-05 1.593677256627804e-05 1
67 -3.005577961651001e-05 3.052571309238617e-05 -5.985650762251179e-05 -1.966414437760422e-05 -4.216170378085255e-05 -2.0655736659098814e-05 6.191647527723578e-06 -4.480665636243873e-06 1
68 -1.0485683684157579e-05 7.791460404727376e-06 5.084706015498586e-06 -2.5213401048577696e-05 1.767124102247627e-05 1.65666492596371e-05 9.625948441402525e-06 1.3913336068781579e-05 1
69 -1.1522418655937828e-05 3.367956025426906e-05 -2.1773542763127477e-06 -7.677080458364419e-06 -1.883818950893445e-05 -2.5806566764445922e-05 -3.1111794690026886e-05 -2.2219932830772962e-05 1
70 -8.419156969131995e-06 -2.776878272335898e-05 1.2785514638040447e-06 -1.9138381935742824e-05 2.2504614100499083e-05 1.848531680752369e-05 -3.991207685550425e-06 -1.63229036166178e-05 1
71 -1.7333153617930796e-06 -1.4770439144624155e-05 -3.620318148537619e-05 -1.6995063996101225e-06 6.550895301859526e-06 -2.2492369662193845e-05 4.746084820936075e-06 -3.637056213144473e-05 1
72 3.3584050123876596e-05 3.234966208735807e-05 -6.312933357574119e-06 9.08635844597683e-06 -6.024804914499688e-05 -2.890869150663332e-05 -7.344473003803246e-06 -2.680332553567148e-05 1
73 3.751628373221722e-05 3.027929688594198e-05 -2.9415367985732552e-05 -2.093658510212982e-05 5.8862092077482584e-06 4.027790371249052e-05 -3.055935781349758e-05 6.22590305767355e-06 1
74 7.14635837026888e-05 -2.0836458430434965e-05 -3.2026730171145804e-05 -1.0590165161520957e-05 -1.3014710321385276e-05 2.0315032193841117e-05 6.041492995520952e-06 -4.437405149105321e-05 1
75 4.139297372791763e-05 6.814174805646073e-06 3.186118042353098e-05 -1.568968841092299e-05 -1.5915382077555893e-05 1.3528290270113286e-05 1.9073162058423415e-05 1.120248409840509e-05 1
76 -2.019439496193777e-05 1.9412593140820954e-05 -2.5857701291859975e-05 5.8819027897065875e-06 -3.559336088497651e-05 1.1158053688576592e-05 -2.0164972607684314e-05 -3.2065866256513046e-05 1
77 3.881978058408941e-05 1.864811948907389e-05 -1.534942003482243e-05 3.6279471225526606e-05 -1.1016310539243562e-05 8.026918492733666e-07 6.722836191965024e-06 -1.549164835321534e-05 1
78 3.8835514327308394e-05 -1.776923884467217e-05 -1.029095805540523e-05 3.406606599508353e-05 -2.601465131281083e-05 -6.0319508273237256e-05 4.027342487529736e-05 6.373319881517508e-05 1
79 9.167680179626295e-06 -6.557016362188919e-05 -7.762099404898595e-06 -7.155573746016731e-06 -4.748096025556426e-06 -2.7834701048046208e-05 1.4489028561911935e-05 1.3112684382152155e-05 1
80 -4.8429067617948424e-05 -1.079229982983942e-05 5.131712454864728e-05 4.299008310926496e-06 -8.433129051712652e-06 -3.550080360188033e-06 1.538141917421403e-05 -4.326679013768046e-05 1
81 -1.8548732899433317e-05 -4.38437174608582e-05 4.619562532390114e-05 -4.354318345123947e-06 4.1697190277988e-05 -2.759351744455018e-05 1.4681479170069807e-05 7.98500659478072e-06 1
82 -5.3285640844837404e-05 -2.4541040762838432e-05 3.0312970920790012e-05 -8.094792607165018e-06 -4.229906622924408e-05 -4.3907066193614774e-07 -2.2560577369812815e-05 -8.55852346659706e-06 1
83 -1.940009375973149e-05 -4.9338798884585445e-05 -4.039145848301695e-05 1.2051670888138133e-05 -1.306796740424201e-05 -6.411860854551418e-05 1.9621100915203376e-05 6.8092438818559965e-06 1
84 -5.117361913176807e-05 -9.479873256503853e-06 2.089519740785843e-05 8.73376556401074e-06 5.9565057067101834e-05 1.0504714968123435e-05 9.692578531550372e-06 -4.1731982527141285e-06 1
85 1.0675422834129384e-05 4.222425022886028e-05 3.129312521412988e-05 -1.303307296593212e-05 -1.0885186823599058e-05 -1.1977579272799503e-05 1.977004302947473e-05 3.7459361007418304e-05 1
86 -1.445129057885775e-05 1.3765500932922787e-05 7.85193059674498e-06 -6.144037500322536e-06 2.380134132849725e-05 -5.6294432265476174e-05 -2.0667626172922365e-05 -1.9560408349036147e-05 1
87 -6.079309951595106e-05 -1.754330792502967e-05 -2.2878902896148154e-05 -5.027616362970759e-06 2.782414729150659e-05 -6.126516279767559e-06 -2.5770343006778846e-05 -1.4238635303382246e-06 1
88 5.5198719025463636e-05 -2.5410679657428217e-05 -2.2764372098036215e-05 1.3963723981855586e-05 -5.538402893270013e-06 1.6187117267736858e-05 -3.4116979488241904e-07 1.7541591202239176e-05 1
89 -1.8934052414037258e-05 -5.466743498639782e-06 -5.267250359078921e-06 -3.039727310260327e-05 -3.908694869671721e-05 1.7143725881866545e-05 -8.773809555449453e-06 -2.555700704118324e-05 1
90 4.001472901135208e-05 9.842508007490165e-06 -5.701844613429808e-05 -3.741596724758316e-05 -2.307216104738169e-05 3.652947166800823e-05 7.064674572982413e-06 1.9182931011530673e-05 1
91 -2.300993150406439e-08 -5.87417909235484e-05 1.119534291806776e-05 1.456858273386164e-06 1.3718470471603165e-05 -4.691774773211304e-06 6.953593161365675e-06 3.952977122627729e-06 1
92 1.8754626434755143e-05 -2.5240947903089092e-05 -4.049679985979425e-05 -5.618171388352139e-05 2.5043634941287682e-05 2.9693127331548414e-05 -2.551557548783344e-05 -4.6495885163640716e-05 1
93 2.9431320260184264e-05 1.0818589301454806e-05 4.4939863060857866e-05 1.2907439302536275e-05 -9.292917414642374e-06 -2.232826553962157e-05 2.862822917663604e-07 -7.48161759713141e-06 1
94 -1.5728056776125802e-05 5.6389279352569605e-05 4.462921005180328e-05 2.840121708888571e-05 -2.302125994522819e-05 2.137548310743197e-05 1.5990660237447547e-05 1.1063640605101325e-05 1
95 1.5733936099973442e-05 2.90243366506507e-05 1.8500355907608387e-05 1.5922657084305255e-05 8.519785200052648e-06 -4.459027824285459e-05 2.090526935263931e-06 -1.390479897122813e-05 1
96 -6.198499739364612e-05 6.447680109716882e-05 4.322488352214259e-05 3.39805150073903e-05 6.380335421396866e-06 3.376562802381642e-05 3.0132951504563856e-07 5.069931922444485e-06 1
97 -6.87406759802982e-05 3.9552102218515414e-05 1.5096482106104275e-06 -3.256630292086161e-05 -1.2799277954149226e-06 -1.993239096420212e-06 4.4939029166116006e-05 2.235533321283524e-05 1
98 -1.8798745526234294e-06 1.4526650778182534e-05 1.1053094526049514e-06 -5.072849619888694e-06 -2.7060679934707172e-05 -3.7762969401732314e-06 -1.8652456416312836e-05 -3.125788847307866e-05 1
99 -1.8480079772739493e-05 1.241749613878249e-05 -4.466768778420195e-05 -3.0671159373781807e-06 2.489253464749809e-05 2.648059347240802e-05 2.564592107213097e-05 9.72830172536495e-07 1
100 -4.7370152554165225e-05 -6.286673368079563e-05 8.615122618758937e-06 9.482000859129076e-06 3.2183277790126636e-05 2.749949125855209e-05 -3.305716413279303e-06 -3.110514697152174e-05 1
101 -7.911337160647186e-06 -2.442567371745222e-05 -5.0520811347351025e-06 -1.4447352701941396e-05 6.322120374247473e-06 -1.2598943535265263e-05 -1.570165209313435e-05 7.78632085758599e-06 1
102 -1.750587776698946e-05 -3.667743562005045e-05 6.830100571303068e-06 -2.8485725027289368e-05 -1.2031028096635304e-05 3.5944423497911564e-05 -2.905198781835718e-05 -5.2916361224263276e-05 1
103 -3.75093229215545e-05 -1.5152640583471418e-05 7.729319508174728e-07 -2.9402713856280236e-06 3.0354745723212542e-05 -6.682086082757345e-05 9.89834686077059e-06 3.903595504508933e-05 1
104 7.072673094534098e-06 -1.5591472753271528e-05 -1.8822297930715523e-05 -2.235865115193822e-05 -8.156550125576e-06 3.568713209211262e-05 4.593466688718801e-05 -8.398480626003694e-06 1
105 7.936574798965574e-05 3.255900173141149e-05 4.3842275667527025e-05 -2.3324662413372944e-06 3.2764456511536075e-06 9.136861816070865e-06 7.947134198418839e-05 2.1282139371119728e-05 1
106 2.2917332401682443e-06 5.501993132422105e-05 -9.045813427108538e-06 -1.2243754572530229e-05 2.271503399730278e-05 7.771396942788197e-07 6.964397862795152e-06 3.4963054663231153e-07 1
107 2.4718107393603206e-05 4.5826502528244784e-05 -4.8424173317635386e-05 1.666431671523834e-05 -2.4550485495757515e-05 -3.605747838898528e-05 -1.460281096467061e-06 2.099525082861357e-06 1
108 -1.6398543073105455e-05 3.0948931331181164e-05 -3.3554379159272675e-05 -1.0173593719313975e-05 -1.4621853373325017e-05 -1.1646817584834842e-06 6.97160711618097e-06 -2.5197323740588617e-05 1
109 1.1043851299560548e-05 -9.952915800774933e-06 -4.729865633279776e-05 -4.896478600992578e-05 -3.079823232327809e-07 -5.524182944658852e-06 -2.5855028393658376e-06 -6.995614132554495e-07 1
110 -1.9084980129582478e-05 -3.5527795914197085e-06 -2.7777622522938958e-05 -2.929928982251987e-05 -2.7333096447184563e-05 7.222916679217673e-06 3.112368446616114e-05 -1.0783485955987763e-05 1
111 -9.297695839837727e-05 -6.617787159785152e-05 -2.0825918069900292e-05 -1.394322218738037e-05 -1.020971568136816e-05 9.645280745229266e-07 -7.793658270561178e-06 2.6233490263585182e-05 1
112 -5.061208929149009e-05 -2.988176349131603e-05 1.1971888463011542e-05 -3.839105174815298e-05 9.742292633000056e-06 2.5638295931566715e-06 -3.6860622479541857e-06 3.970690267873156e-05 1
113 -4.8262852698021526e-05 3.843644348106365e-05 -5.635786230702482e-06 -3.19254111242557e-05 1.7479895248706325e-06 -2.6906130007969206e-05 -1.8793896195337506e-05 9.925832500387278e-06 1
114 5.7863710714322095e-06 -2.1090654735516444e-05 2.4685128626160018e-05 2.893769395052835e-05 3.590754391408228e-05 1.3235335178143054e-05 3.408571780214247e-05 -4.701996069935144e-05 1
115 -8.395710930476247e-06 -9.236024638464237e-06 2.9806465281848024e-06 -1.4286230479918433e-05 -4.15394604874331e-06 4.705437200510124e-05 -4.2429949105094575e-06 1.0344807929755349e-05 1
116 -1.132030970204217e-05 2.6987417073956847e-05 1.5041701090178648e-07 1.1208101649328987e-05 2.9132688388679425e-05 4.1184849940083237e-05 7.740502047729172e-06 1.4738672150890055e-05 1
117 -2.56008088604769e-05 4.5547823590119446e-05 2.3507236622089727e-05 2.1649215960428833e-05 5.2902433198762555e-06 2.215984898919881e-05 1.2269167724845472e-05 3.000765645648304e-05 1
118 2.931696928998909e-05 2.3202632322726358e-05 8.396031423325592e-06 -7.32648593963194e-05 9.572143409626236e-06 -9.121032063036959e-05 -4.308658518513545e-05 1.1294215023524604e-05 1
119 6.132035837595181e-05 -2.1503337014190535e-05 -1.780255104697347e-05 3.42635247153533e-05 -1.2100753289316904e-05 5.607300781007463e-05 -4.799632940865373e-08 1.020090442203167e-05 1
120 5.698256516038246e-05 -7.305976019420506e-06 -2.5058599517270032e-05 -2.743186292357253e-06 -8.902684047522734e-07 -3.411854130503914e-05 -6.395801783520585e-06 -1.8554802349935917e-05 1
121 4.2339185608602356e-05 -2.0367537600145956e-05 -7.069893728689252e-06 -2.6545482655644067e-06 5.5780504601541535e-06 1.5420354992244494e-05 -2.4992805716734536e-05 -2.60396908155318e-05 1
122 3.944181241332847e-05 -3.3556696515018894e-05 -3.5421052314921856e-05 1.1095317734577616e-05 1.1584245150817174e-05 -3.826788143141766e-05 5.737042886590158e-06 1.8389577310709342e-05 1
123 7.223959232725244e-06 -1.0452722880010667e-05 -3.510672745226873e-05 8.27600387490489e-06 -7.565493986761164e-06 -1.2069753968116121e-05 2.1763890235493163e-05 3.698186276685575e-05 1
124 2.7382587127536503e-05 1.6295448691104913e-05 -2.743354540754592e-06 8.818004075658577e-06 1.9170571794606093e-05 3.029448732486549e-06 3.2691046977886094e-06 2.0593828296904553e-05 1
125 -1.2322221632560962e-05 9.055832676861931e-07 -1.0361826645896464e-05 1.584775944334356e-05 7.48322799988933e-08 8.505249421708446e-06 1.6751981055054746e-05 -9.37103657244024e-06 1
126 -4.3081224485446375e-06 3.238783158436532e-05 -3.0870327172786965e-05 3.605761977965611e-05 -1.2518618593922904e-05 -4.1377383579629594e-05 -2.612609273965756e-05 -2.552612901695805e-05 1
127 -1.82177220590018e-05 3.118722149861344e-05 -8.420799191014821e-06 1.5492549137061974e-05 8.496884029817595e-06 7.901196766107156e-06 1.0245711433217318e-05 1.540336670005596e-05 1
128 -6.979556963821044e-05 3.159246424465606e-05 -5.450525161223685e-05 9.014981699448854e-07 -1.1582430560863301e-07 2.613830686974201e-05 2.969085981802802e-05 5.0693762063091835e-06 1
129 -1.7266208258909213e-05 2.860917688224453e-05 -1.3197940933107838e-05 -3.4816286083722474e-08 2.4653407924019195e-05 -1.394428364973559e-05 2.0141965981062523e-05 1.693503421730756e-05 1
130 -9.836571581735812e-06 2.2161898559243027e-05 1.746415863428763e-05 2.548147184316436e-06 -1.9058086450691308e-05 -2.148015046438925e-05 -1.3441564422575562e-05 1.3564861582299001e-05 1
131 -1.159558224491412e-07 2.210770501576701e-05 -3.104388822195982e-05 -5.101714610971224e-06 2.741193864350216e-06 6.112825362647292e-05 -3.443289138800919e-05 3.680036416225334e-05 1
132 4.783778067089885e-05 -1.6181628024773614e-05 2.9586978347051127e-06 1.1118170454880826e-05 -3.842127609050444e-06 3.6351254536436455e-05 -1.141177860561806e-05 2.8305864304481193e-05 1
133 2.3450074809058092e-05 -3.85011879688653e-05 -2.679906380725548e-05 1.1375593008687999e-05 3.612814892316335e-05 -1.933904495521352e-06 -4.922142467597739e-06 -2.786542407669817e-05 1
134 1.642869032560504e-05 -5.696634115258269e-05 -2.2821949667970683e-05 5.669651152728386e-06 3.2975329943534905e-05 7.023027153073757e-05 -1.4664627126772518e-05 3.5882503916136e-05 1
135 3.952389673651216e-05 1.4318440213825923e-05 1.0814861293153806e-05 1.5479120919989796e-06 2.759893140305463e-06 -1.020832907066673e-05 -3.495274149497127e-05 -3.859063006305204e-05 1
136 3.9828906006865314e-05 -1.2078159739340545e-06 -1.4902222491404167e-05 2.126406680788392e-07 1.987330632289069e-05 4.509098575659955e-06 -1.6401373416024184e-05 3.0657323891223745e-05 1
137 6.342262405738185e-05 3.297734622254024e-05 2.4341587783602253e-05 3.104899992034528e-05 2.8252482910112844e-05 1.535247942781559e-05 1.4958676176872073e-05 1.2991514333662566e-05 1
138 -4.495077349790652e-05 5.621429568065624e-05 -3.389534927816385e-05 -1.9864986378126376e-05 3.258912669520219e-05 2.100550406735494e-05 3.718495724214657e-05 -6.791859592182306e-06 1
139 -4.2250296017498976e-05 8.544038552879325e-06 2.550782431014355e-06 1.9747179085002425e-06 2.8342011968917543e-05 -9.031760625086138e-06 8.800861795073106e-06 -2.4715678735865153e-05 1
140 -2.225827848107221e-05 -3.16281340809421e-07 -1.8745333457112936e-05 -5.895734054371321e-06 -4.604393662880541e-06 -6.753878233427405e-06 4.428353105669209e-05 -2.461150057696991e-06 1
141 -3.0417893901116932e-05 -5.787900897026226e-05 -2.2355183799486934e-05 -6.576835611408821e-06 -1.714631690441607e-05 3.454268983444493e-05 -4.123444384905466e-06 3.221110623295631e-05 1
142 -2.7318583961020624e-05 -3.3601789051990595e-05 -2.2199111928125236e-06 9.490629053647832e-08 4.2969875076246486e-05 -5.799026816878046e-05 -5.0038643610966976e-05 -1.3579270776402848e-05 1
143 -1.3837030548025301e-05 -2.627536230175094e-05 1.182717995068688e-05 -9.606147822014255e-06 2.547609233104406e-05 2.5754885078818274e-05 4.601445781789139e-06 2.4066439312171032e-05 1
144 -1.4993674131582452e-05 -4.796813305464418e-05 1.744542097500012e-05 2.7653280644669428e-06 3.349616886217323e-08 3.682383930473936e-05 -6.127180321350217e-05 -3.544210425398924e-05 1
145 -1.668050058255713e-05 -7.323798273306395e-06 -6.3652042441507534e-06 -3.768314119432619e-05 -2.462895080777066e-05 -2.1521041963089256e-05 6.14356023018973e-05 4.5043548693678663e-05 1
146 8.71078169386393e-06 6.937201531355977e-06 -2.8730099929707356e-05 -4.770326033063167e-05 -2.922004660213101e-06 -2.4946299581100644e-05 -2.1212632915502443e-06 -4.000514622608694e-05 1
147 8.189602285914507e-06 2.3002536710819713e-05 9.155239944598436e-06 1.0436798968550363e-05 -3.3012224603925934e-05 2.1367143253389044e-05 -2.000529241504626e-05 1.5821447865182664e-05 1
148 4.897293220072435e-05 -1.6301531303163457e-05 -7.904942614529699e-06 9.13409355159419e-06 1.5324134511864976e-05 -3.5246974361104657e-06 3.8294472265026324e-05 2.5187769274663974e-05 1
149 1.7993449158335527e-05 3.865345570965184e-05 4.834483712970467e-05 4.9012115019575676e-05 -3.0699997020562436e-05 -2.3163327778928767e-05 3.712296966834628e-05 -2.6457026270940932e-05 1
150 -8.172469129990269e-06 6.437995475902915e-06 1.0505667736864644e-05 -2.5599176652774095e-06 -1.6264090510139804e-05 -1.6855311543112726e-05 -1.780842661031772e-05 -2.1987740716473565e-05 1
151 6.872033445665689e-05 -1.138065705527997e-05 2.2168976360118465e-05 -1.2226936702973094e-05 -4.648916929651221e-06 -1.7838849534258876e-05 -6.629270837298005e-05 -3.4450231921196654e-05 1
152 -4.543158696881718e-05 -8.756221419519062e-05 -2.9883974357452572e-05 3.3123891984540776e-05 -1.1109041926088606e-06 3.226409405802935e-05 1.0274564422521884e-05 1.956397064287898e-05 1
153 -1.4925840129763436e-05 -2.8981933951342478e-05 1.8217855851858647e-05 -1.4416182305842323e-05 1.398850926540416e-05 1.4154693964370825e-05 -1.3738815528252071e-05 -2.8069210806774877e-05 1
154 -5.3388423511321666e-05 -2.6435429507028397e-05 8.17524671973287e-06 -1.9813145761447862e-05 6.64633533152466e-07 1.4263425903462135e-05 1.5454767866632523e-05 3.879700300306222e-05 1
155 -3.464157005438103e-06 -3.2417225356591974e-05 4.2089655238450564e-05 -1.327441261389287e-05 2.612182031136069e-05 1.6996656512772214e-06 -1.030373446142419e-05 -4.519242149437332e-05 1
156 -1.5075762014495036e-05 -1.0546259778284015e-05 2.418248089606931e-05 3.7919816428481204e-05 -1.9922774732417257e-05 7.549268562981779e-06 -1.8134788050199386e-05 -1.5712118253419743e-05 1
157 -7.496440598221882e-06 2.402672615366588e-05 4.349120104827529e-05 -1.2055811967573026e-05 2.498340831186223e-05 2.43533532394455e-06 1.989445024360583e-05 -1.1178941433248668e-05 1
158 -3.090785811730184e-05 2.6842001884366535e-05 -2.090142787114468e-05 1.6552038364543818e-05 1.6256225139459106e-05 1.4838867372639168e-05 3.842414134794112e-05 3.623362003090759e-05 1
159 -1.765887893873592e-05 4.491488655749539e-05 -1.559001723145532e-05 5.838829028638864e-07 -1.499373622797162e-05 4.050175772840128e-05 9.09245375857407e-06 -5.450728202610554e-06 1
160 2.9450916444236475e-05 -3.327494210834556e-05 -5.0352564871632246e-05 1.989596638049435e-05 1.5117112029342016e-06 6.261157506519016e-06 -3.315990258296372e-05 -5.808427712591551e-07 1
161 5.4918993116128124e-05 1.0874547066728555e-05 4.242663628570303e-06 -1.0976347752623442e-05 -9.864321296734846e-06 -5.3229947230000445e-05 6.441010523029014e-06 2.113707771204635e-05 1
162 -1.3645014718168828e-05 -1.4110674880400888e-05 -2.8936615805835553e-05 -2.413377987021909e-05 1.3370406705475056e-06 -5.211005387471186e-05 1.5356760958926598e-05 1.8846376748342056e-05 1
163 2.3495703102092062e-05 -9.222111847810139e-05 -2.491046565005974e-05 3.082254835256742e-05 -6.944985701821431e-05 -8.68808530483798e-06 -2.950001946168148e-05 2.0114257539620913e-05 1
164 2.083206823190982e-05 -1.6216240025777176e-05 1.4136510479227328e-05 4.59056459932505e-05 -5.073548591884255e-06 9.401109240565284e-06 -3.71263869781859e-05 2.9760339082343604e-05 1
165 3.7740687311036685e-06 -2.5674950562705322e-05 -5.561948712302684e-07 -3.907210863349624e-05 5.71925072322345e-06 2.418665682312527e-05 7.32334558743229e-06 -3.972243910446813e-05 1
166 6.717224142655104e-06 2.251351960705712e-05 -4.69497191491477e-05 -2.686915034544285e-05 2.1913590102038e-05 6.752385854932164e-06 1.0299289553168847e-05 4.648737019058279e-05 1
167 -6.550163090796378e-06 4.976604196341575e-05 6.776863818045815e-05 -5.345113952262268e-06 -1.994706909046238e-05 1.0694909956178319e-05 1.0974775734722372e-05 -1.3167884798655205e-05 1
168 -3.791094764620031e-05 8.10990605783868e-05 8.171086759700573e-06 -1.830713453505189e-05 2.2898257556989967e-05 -2.7286287890333627e-06 -6.322036157945782e-06 1.4056821797862332e-05 1
169 -4.7096128007030944e-05 4.670300851204226e-05 4.7823870193293805e-05 1.165444155493277e-05 -9.405302594586612e-06 -1.267763201070605e-05 -1.0258499333627734e-05 -6.349066951194527e-06 1
170 -3.6654807746405046e-05 4.469816534639093e-05 -4.3330227580224583e-05 2.155000126030335e-05 -9.492163128564029e-06 9.423694642384306e-06 -2.8174697755021596e-05 3.32157766712359e-05 1
171 7.558744350918875e-06 3.683504570164357e-05 -3.786886939483849e-05 2.0728026776651323e-05 1.0121377190892722e-05 -4.0131781178314193e-05 -6.074345942703872e-07 9.113362225831563e-06 1
172 -1.8014255736501163e-05 -1.2966165996703588e-05 7.2807854211844924e-06 3.684028480632739e-05 3.0650847747767e-05 -7.167637384456859e-05 -7.93596387094205e-06 -4.116275688598782e-06 1
173 -4.036990281824793e-05 -2.9295345764127965e-05 3.121894431026267e-05 -2.716419648976476e-05 8.410023467246808e-06 -2.2895586932410944e-05 -1.679780059199192e-05 3.693484085425088e-05 1
174 1.0658793056631594e-05 -1.2182101185613324e-05 -4.6780452901524677e-05 4.6557939034872004e-05 1.5066311157662474e-05 -4.562496066256542e-06 1.438866274999737e-05 -3.524548572369526e-05 1
175 5.158858410242121e-05 -2.7429898909165742e-05 -5.1017378762108675e-06 -1.229139037413711e-05 -1.4516285068639617e-05 1.7366765290710217e-05 6.397671252605572e-06 1.6293703535076e-05 1
176 2.155916847673802e-05 -1.939070285989566e-06 -1.047121859812596e-05 5.574329603523871e-05 -3.9198260410762466e-05 3.152343308907461e-05 3.419768626802427e-05 -2.1303970149139845e-05 1
177 8.563200619917915e-05 5.05211096498907e-05 2.427847517057279e-05 7.005546756469172e-07 -5.430653955466911e-06 -5.235220675990203e-06 9.76326490798793e-06 3.50296568758474e-05 1
178 2.979129554122858e-05 1.118747627798125e-05 2.0610676559624494e-05 2.3028768659869808e-05 1.6366488211194652e-05 1.8637472663124567e-05 -6.773203253945203e-06 -2.322472917826449e-05 1
179 -3.39710638691732e-06 -9.956196592369571e-06 5.923715288648744e-06 -2.0862195806648407e-06 -1.099969261324272e-05 -7.389047060862675e-05 -3.1182936742354225e-05 2.8021016285079173e-05 1
180 1.192285731464027e-07 2.9757352222399864e-05 -3.476713574938141e-05 3.596763705898078e-05 -3.60069150136691e-06 7.25100991208838e-06 5.814449479704213e-05 3.7911002514735094e-05 1
181 -8.222490328044275e-06 -1.0966443148633504e-06 -8.138625287988295e-06 1.2747456211913392e-05 -2.6306033562717783e-06 -9.881103625086792e-06 3.667953126772606e-05 -2.8552472944459222e-06 1
182 5.1144054969119544e-05 -1.8132764263076296e-08 4.463295985561819e-05 8.93298556776567e-06 2.4074014331236197e-05 -1.811527628794311e-05 -2.1343980564685295e-05 1.1492648875374689e-05 1
183 2.010320876979575e-06 -3.9707769134725904e-05 -3.215983337709243e-05 -3.4006459157233176e-05 -3.567841005465603e-05 -4.419055282348453e-05 2.7371339861771877e-06 2.812609804270063e-05 1
184 -4.053409879761021e-05 -8.463463117546957e-05 -4.769011508363718e-06 -4.0699749158151775e-06 5.2399968755635984e-05 -3.642844782298891e-05 -9.766940064979893e-06 4.264631701361411e-05 1
185 -2.4603215103226885e-05 -7.041810601218458e-06 2.8646109255969556e-06 8.248588466431615e-06 1.94402382569634e-05 -2.0237157972319158e-05 2.1951464472704998e-05 -3.432507542213848e-05 1
186 -2.180765104647578e-05 -3.260518928056909e-05 -1.5407327204802698e-05 -5.671318831411684e-07 -1.5563503816638826e-05 -2.679253317154361e-05 -8.84036854034111e-06 -2.759971588429154e-05 1
187 -7.1629518475797e-06 -2.1360267261059528e-05 1.7799425574776286e-05 -2.9536976698220503e-05 -1.4157372889525159e-05 -1.5615085205379477e-05 3.3128668221870976e-05 8.257248640414797e-06 1
188 1.2832748240522691e-05 4.195347527224277e-05 -5.2679808683242205e-05 -1.0783397410226863e-06 4.993785444511907e-05 3.3086626600668142e-06 1.6978292292333876e-06 1.3703209491054902e-05 1
189 5.567852396314541e-05 -1.2453694606077406e-05 -4.205816204477567e-05 5.257282277153664e-06 -1.7871914047437744e-05 3.280063155549786e-05 -7.879359747130597e-06 -4.8363268392827946e-05 1
190 1.4540792033816428e-06 -3.1166386576174696e-05 -5.853138432072814e-06 -4.709603181609584e-06 -1.0611567744547444e-05 2.697197597574347e-05 2.9962995912917342e-05 -4.2597105839027804e-06 1
191 -2.0919433207534855e-05 2.9044572273230064e-05 1.3884005712714388e-05 7.734789253923626e-06 2.4536993732702896e-05 -2.9120702411526003e-05 5.0218884654628476e-05 -2.39856938285467e-05 1
192 3.7048489026062424e-05 -5.441954720750389e-05 -2.325661718175127e-05 3.790921616813341e-05 -6.522495575021248e-06 2.0998065128319948e-05 5.923884717981153e-06 -2.623953900004317e-06 1
193 6.296210059886099e-05 -4.388434055484977e-05 -4.451845268908677e-05 -2.008100229879263e-05 1.3779793217542356e-05 9.887727659062703e-06 -3.9176456255885956e-05 -1.8108562985205028e-05 1
194 -6.027991426691952e-06 -2.9261997308585992e-05 -3.4397839715038785e-05 -1.5709277702986967e-05 -1.8215262131488188e-05 1.9288331494047983e-05 2.0228032774756094e-05 -3.6452614522203997e-06 1
195 9.578454181917485e-06 -2.056744602155068e-05 -2.0414377686389374e-05 -2.8670802054186025e-05 -2.3505530223142925e-05 -1.587032909928642e-05 -2.9086844994806777e-05 4.051488976571869e-06 1
196 -8.701620864317911e-06 -4.805492348066436e-05 6.282177804008338e-07 -5.4983948816583895e-06 8.537717138420074e-06 -3.2346920258970157e-07 -3.6339981998290774e-05 -3.155973247142914e-05 1
197 -1.828097867827956e-05 1.662644196203622e-05 -5.535468427607508e-05 8.643164495039499e-06 2.974055013219108e-05 -3.825646905155328e-06 1.375506240066102e-05 -1.7576727022445056e-05 1
198 -4.234963909266458e-05 -1.5388865322958933e-05 -5.8608582710471847e-05 2.356914503063188e-05 -2.462487319311105e-05 -1.1388196125085763e-05 -3.466105633175483e-05 -3.52492425770969e-05 1
199 -3.7150668734792404e-05 -3.2638065222734787e-06 9.449274949867462e-06 1.1313460474489798e-05 8.021241158115179e-06 5.965019773211093e-06 3.9444205123297156e-05 -2.668984422612215e-05 1
200 -2.3426479324891785e-05 5.188125428115486e-05 3.161349523345091e-05 -3.554409123361432e-05 -7.808886041396749e-06 3.395302739668151e-05 1.2701977629976633e-05 4.881575786994319e-06 1
201 -1.4582185897534144e-05 1.4690860178357855e-05 7.205476577258105e-06 -6.3093531246120845e-06 -1.0644655261111045e-06 1.9649676528759344e-06 -1.695178821233748e-05 1.330323434703596e-05 1
202 6.587774499160223e-05 -3.22354483338076e-05 8.100313104749498e-06 -1.900475221547264e-05 1.443506443798125e-05 1.1639368331965232e-06 1.9046369351061587e-05 2.938766441271949e-05 1
203 2.0267538342475698e-05 3.1142693654862635e-05 -5.860744734471694e-05 3.976130744790058e-05 9.376553797308502e-06 2.6946083893629547e-05 -3.0496893621038042e-05 -2.0769247040133393e-05 1
204 1.767031102067159e-05 -3.137288612047317e-05 7.07671470024974e-06 2.7112879023249155e-05 -4.413050788257123e-05 2.434547679293273e-05 2.0704774894817546e-07 -5.094546528113694e-06 1
205 -4.676597099696205e-06 -2.909861509088707e-05 -6.0352696275775935e-05 1.6209850280967817e-05 -3.73026458868248e-05 1.3364478154368508e-06 -2.9792209331980107e-06 2.9238453682347095e-05 1
206 3.871108782587065e-05 -5.226102719035375e-05 -1.2665067399280076e-05 3.182206921886659e-05 1.3407424229522343e-05 -9.640749538079033e-06 -5.911160499112836e-06 -3.917942726463617e-05 1
207 4.353709891432152e-05 -6.013395318713185e-05 1.8794911645886402e-05 3.215539812281646e-06 5.9673794989348063e-05 -2.7503388843107646e-05 -2.5665522760158236e-06 4.4957192523076566e-05 1
208 4.665781564273763e-05 1.5372872190837268e-05 5.5991857093361936e-06 4.998391037718083e-08 7.04889668485393e-06 -1.7467010899620745e-05 -2.2330100675183632e-06 -3.995130938191785e-05 1
209 1.0264074270904387e-05 4.5511421814743364e-05 -5.6854853160971e-06 -4.03762722646197e-05 2.4713296571286564e-05 9.113125949820058e-06 -1.815037744252442e-05 -7.015011170951599e-06 1
210 -3.201412047014854e-05 1.884479835126023e-05 -1.3445283658928487e-05 3.071052030700378e-05 -1.5987584772186892e-05 1.600534148321897e-05 -1.3457905071539495e-05 6.198689021296872e-06 1
211 -3.261595833171776e-05 4.758825384499169e-05 -1.3370283455463947e-05 -3.9313206250061024e-05 -3.454872578409082e-05 -1.3296937348568936e-05 -3.122649926695132e-05 1.0255300391988782e-05 1
212 -4.941972826481912e-05 7.224910506679552e-05 -4.34428648784283e-05 5.090829467745031e-06 -2.8198825587641725e-05 -1.2335033509566966e-05 3.535486833513604e-06 -5.8134284371857174e-05 1
213 -2.132320077243375e-05 4.7570311686805746e-05 -1.1335957459214821e-05 6.495196420137738e-06 2.5623042328134984e-05 -4.098837500674914e-06 -1.4524004713287081e-05 -5.689341009304381e-05 1
214 -2.0378033014295118e-05 -3.2346030127050064e-05 -2.5317096284704044e-05 3.1649177569423394e-06 -1.4592008920154534e-05 -1.321065327788814e-05 1.5157278902717706e-05 -3.3459560283096115e-05 1
215 -1.3148420088836635e-05 -7.111529516979224e-05 -1.6567535208881597e-05 4.8073654851664436e-05 2.8183869041060557e-05 2.4400998123860047e-06 -2.3513255387530415e-05 -1.3231807667497331e-05 1
216 2.388179038742913e-06 -3.604484159184797e-05 -2.2717732406490715e-06 -7.708128521046083e-07 -5.359377742627853e-06 -3.604946839100032e-05 -1.291276855402082e-05 2.2865601349671165e-05 1
217 -4.386079750573828e-05 -2.5641931821176034e-05 -2.04938482192711e-05 2.7837607349527833e-06 -9.715829526670454e-06 3.693484162436673e-05 1.2664578854756345e-05 -3.279507914443029e-05 1
218 3.02183838212756e-05 -1.560123888006641e-05 -1.442490928443834e-05 7.845475502678046e-06 -1.229368549325337e-05 2.2321395408073883e-05 -1.9362751537834886e-05 -1.547366381478408e-05 1
219 4.085788676593853e-06 -4.874759100265368e-07 2.7479788888695324e-05 1.5719907340257578e-05 4.274859885030178e-05 5.6691105097481367e-05 -2.5767925798308494e-05 1.7604781831822223e-06 1
220 6.324586088430808e-07 1.6147691584536268e-05 -1.5752062756391735e-05 -2.642887185345686e-05 -2.6297181822460343e-05 -3.6071094630063717e-06 -3.041796045966018e-05 2.1053173978440822e-05 1
221 1.422206486110231e-06 0.00010504060807801085 -1.128461127410988e-05 1.8004410479263056e-06 -3.238352961165088e-05 4.265229395319099e-05 2.7987517020072908e-05 7.422896768402814e-06 1
222 7.018296547651892e-07 2.326816928590281e-05 -2.8035776150431375e-05 3.655888158683402e-05 2.022986829632932e-05 2.385975962193403e-06 -6.090939158118306e-05 -2.4585399466475766e-05 1
223 3.4462634384285754e-05 2.2590955335758756e-05 2.772924528730329e-05 -3.980032505603639e-05 7.5388076703226025e-06 2.5387880412073238e-05 -4.145838913955613e-05 -1.9761288433090868e-07 1
224 1.873404203441261e-05 -2.5426498476120363e-05 -4.630404638503004e-05 -8.142452751843218e-06 -8.182635756375601e-06 -3.701810113693855e-06 -1.408678563562674e-05 -1.1075303831036683e-05 1
225 -1.9564699970949473e-05 -2.5747065800762607e-05 -7.61066907141668e-06 -1.0241223209200047e-05 2.3088509563614523e-06 -4.8022898147379544e-05 1.1925878180661452e-05 -1.4077428073970206e-08 1
226 -2.4088461010678566e-06 -8.797949916702742e-06 -4.8820388251206206e-05 -4.9345846746474094e-05 6.845096133087989e-06 -1.7792137821289434e-07 4.254423579798305e-06 -1.155317687931114e-05 1
227 -3.485240589506147e-05 1.1346873313269441e-05 1.2099557348788177e-05 -6.520711460114579e-06 -5.269223469036008e-05 1.9230905200928205e-05 3.054321665543982e-05 1.61139602995995e-05 1
228 -7.192959490223951e-05 -9.57929261725177e-08 2.1513242699036136e-05 3.8970406194977144e-05 -2.1902748105698942e-05 -5.661364613603462e-06 1.868180127858638e-05 1.4352517859539448e-06 1
229 -3.9822536648542105e-05 4.785283186549242e-05 1.4466540845379167e-05 2.19907240827505e-06 5.4896231794986045e-06 -6.467647542143254e-06 3.695697339290148e-05 -2.2517304592816916e-05 1
230 -2.920701374717922e-05 2.991019192305862e-05 2.1973850692522316e-05 -3.743432925236342e-05 -3.275741874413598e-05 -5.094321269336795e-05 8.173806313317697e-07 -2.79576454301636e-05 1
231 -1.1694458192652726e-05 5.484528787056919e-05 -1.6038568019571166e-05 5.782050568584114e-06 -7.483447693793051e-06 1.680285787741092e-05 1.187820168370022e-05 -1.729834240436525e-05 1
232 9.433047755465065e-06 4.441793271044888e-05 9.834421756352425e-06 -3.492405144377829e-05 1.6390451529284567e-05 -2.7115265560905955e-05 3.531282674902515e-05 2.5602470996025625e-05 1
233 3.5430785495551996e-05 2.362973585021122e-05 -5.225806400685501e-06 1.6963098785000704e-05 -9.269454236551542e-06 5.889246765997347e-06 2.179835916298628e-05 -1.4045163588139742e-05 1
234 1.905378853213668e-05 -4.341159264030007e-05 -2.6611818653154306e-05 -4.570988278603756e-05 1.824571972538824e-05 4.522286355206927e-05 3.563322358675764e-05 -4.065211221566291e-05 1
235 4.308234618212965e-05 3.0664711274347813e-06 -1.14202495184666e-05 2.5361857662512365e-06 -5.019732627011676e-05 6.668404199416038e-06 -2.658899323586794e-05 4.990875447787864e-06 1
236 4.966235302722923e-07 -2.685176402856897e-05 2.5612816885667245e-05 -1.957949654287919e-05 -2.8423064535260862e-05 -5.3900576063749534e-05 -6.660338351879426e-06 -1.4539848357040129e-05 1
237 -9.941571774112735e-06 -1.9815321292048467e-05 -1.124925954661623e-05 -2.689339896613081e-05 -1.3864310141011178e-05 2.6782613473240393e-05 1.5073423593880556e-05 -3.250651537462246e-06 1
238 3.870999070136129e-05 -3.692746457186839e-05 8.092525181757633e-07 3.683058262161764e-06 -1.1745912712468172e-05 1.0886458398935447e-05 -1.9510836366111284e-05 1.2745517694402948e-05 1
239 2.540658431490423e-05 -6.257003427605205e-05 2.9757642587752943e-05 -7.619081413381886e-05 -1.5401225638903135e-05 2.5633700856443878e-05 -7.932168131311018e-06 -3.665464956173855e-05 1
240 -4.396910512409156e-05 5.1604732958783744e-05 -4.803761326371596e-05 2.8224777524050433e-05 -1.3775524760572335e-06 -2.980988326106084e-05 -1.457787680756728e-05 -2.5430608527541032e-05 1
241 -2.077668045168908e-05 4.5893289496509815e-05 -4.297902834690117e-05 -1.0089802962983352e-05 -2.1579641558606927e-05 3.233774921148426e-05 -3.375247795316053e-05 4.010572761712535e-05 1
242 -1.7905486253468926e-05 -6.016672441480355e-06 -1.6931854600231948e-05 -2.0040471019211266e-05 -3.186546005038765e-05 2.370671493259392e-06 -3.069788876729608e-05 -5.4509155218454723e-05 1
243 -5.264971734855069e-05 -3.388678566047714e-05 -1.880402170168801e-05 -2.2727572215083897e-05 -2.1780401800645356e-05 5.002407753975384e-05 1.4102891792392691e-06 6.134275224883304e-06 1
244 -6.604299355192582e-05 -1.654927305356914e-05 5.3825657485378e-06 -2.561322282282516e-05 2.2701571087949637e-05 -3.0067414647525756e-05 -7.159153396629391e-06 -1.4651290999388968e-05 1
245 -1.0832706810067469e-05 -3.313187690357198e-05 -6.7723406767734335e-06 -5.903252294449639e-06 -1.8359693934782525e-05 1.2127346712427817e-05 5.959709370935632e-06 -2.215348631329183e-06 1
246 -1.2466151714670363e-05 -6.388275250732306e-06 -5.895856095354534e-06 -7.66743219564843e-06 2.6172507472031503e-06 4.2414667074271266e-05 -3.35089052005301e-05 1.9246422326383868e-05 1
247 -2.255496713672595e-05 -2.720245496447878e-05 3.937707069021827e-05 1.2216713111682678e-05 4.2656269634948205e-06 -1.401123672007689e-05 7.76180012213856e-07 -6.3015703850839075e-06 1
248 1.1305834074989259e-05 -2.2752620339522868e-05 4.9595290156609885e-06 -1.918042671326601e-05 -2.0157045517117104e-05 -3.400608593980436e-05 9.768125652222402e-06 1.363308154917651e-05 1
249 4.553765044481928e-05 2.3306462603488187e-05 2.1966909270181882e-06 9.800273434143918e-06 7.595935640939071e-06 -2.288500485455197e-06 -1.3270545703241182e-05 5.535381539479778e-05 1
250 1.4835555136741488e-05 -1.3260461407109851e-05 1.0850245586252675e-05 6.296360382375129e-06 -3.511978869025819e-05 2.8066956364093467e-05 -2.3548643837708328e-06 -2.7773277380393014e-05 1
251 5.5565539363418824e-05 4.687703170779124e-05 -3.161354979869786e-05 4.442957100644311e-05 1.646993420915482e-05 -2.549028906261533e-07 3.9755470140544484e-05 3.982444595741014e-06 1
252 7.334290039857763e-06 1.3853451254682205e-05 1.4546260982676965e-05 1.1915074183099498e-05 3.670034972427822e-07 -1.9749658846690075e-05 3.2482463541518466e-06 -1.7449696440534472e-06 1
253 -3.4408097802122215e-05 -2.450326177888153e-05 1.4128834470244238e-05 -6.504720787629223e-05 5.1352631740315e-06 -1.1952076443845613e-05 3.270616517199776e-05 -1.2336705228846895e-05 1
254 1.1985391423945754e-06 -1.2455313125926475e-05 2.8437038371535864e-06 1.842091327300128e-05 -1.1563892908114505e-05 2.4913872112460102e-05 -2.484244692766208e-05 7.3648210639594775e-06 1
255 1.4974208487038532e-05 2.8450378446370284e-07 4.791112191838526e-05 -1.9085982932766513e-05 -3.44787312837147e-05 -2.4858377712377988e-05 1.6511064163710927e-05 1.2448073356734466e-05 1
256 -3.409934178238427e-05 -7.147551998047265e-05 1.917168233322652e-05 -3.061761944126351e-05 2.8973739559422497e-05 7.143596057849662e-05 9.161278664288763e-06 1.4577703391443579e-05 1
257 -6.884671585046634e-05 -8.754534424439052e-05 -1.5067984075755559e-05 -2.7322381027468736e-05 -3.617511441037539e-05 4.305899854989123e-05 6.821562950644325e-06 9.492189515349592e-06 1
258 -2.3691369362069333e-05 -1.4612199451447432e-05 2.4113767055983334e-05 -8.08427967380386e-07 1.326734845061832e-05 -4.9001074461253965e-06 -8.55382226830118e-06 -3.5172854140046555e-05 1
259 -6.393550396296875e-05 -2.971982411926089e-05 1.4124172998308173e-06 -3.215325091771978e-05 -8.618716258658221e-07 1.3438140747625507e-06 -5.390020015148448e-05 -2.287811648698753e-05 1
260 4.378471317030746e-06 2.190015103795835e-05 -2.8841872909994017e-05 3.961201262493374e-06 2.5560180634011803e-05 1.9426823974772456e-05 -2.382144675348364e-06 -1.169940783310731e-05 1
261 -9.236516023228807e-06 3.0341122409548304e-05 4.877599328572201e-06 1.573510015255501e-05 3.2968453280287996e-06 2.0469098758686047e-05 2.364813323942504e-06 1.9617217903292163e-05 1
262 3.654713372498931e-05 8.174364511054702e-06 -4.520360117176865e-05 3.858732140036384e-05 6.416468267806543e-06 -4.286214738740304e-05 -1.7845487430467776e-05 1.9296857309245712e-05 1
263 4.553132974140064e-05 1.3778827866294539e-05 3.502204650782417e-05 -2.6182178659595264e-05 -1.995383394387085e-05 5.284661876206689e-06 9.761373301347057e-06 1.2408575858518289e-05 1
264 5.919328468818198e-05 6.210080019463351e-06 1.2234598473460229e-05 -6.4802314828770805e-06 1.5674575809178562e-06 2.688354501340861e-06 5.377453395475902e-06 1.931349518956902e-05 1
265 2.8473860504472948e-05 -3.4729914950517908e-06 -2.0228149623525995e-05 1.6917814515677387e-06 -7.004446223935984e-07 4.829539495329959e-06 5.516313267851005e-05 -1.3094319463530886e-05 1
266 3.592793167131544e-05 1.2091488950303499e-05 2.450047852484572e-06 5.844612797930413e-05 -9.450982293286919e-06 8.102230558001178e-06 -1.997014362232455e-05 -8.788118378582329e-06 1
267 2.636514413435094e-05 -6.391432011335414e-06 7.977370850589354e-06 3.14778712333684e-05 -2.3741327648167936e-06 -8.304213245975134e-06 6.759962768198466e-05 9.85594123605077e-06 1
268 -2.3891663188639044e-05 -3.8116978230309296e-05 -2.3566997863283513e-05 2.34142338964197e-05 -9.109432322331046e-06 3.1840618914121405e-06 -1.587716860956718e-06 1.8287310198523365e-05 1
269 -5.184859512401728e-05 -5.567748500494185e-05 5.607432679539857e-06 1.5023982117497427e-05 8.313307827441019e-06 -2.023634322743319e-05 1.6937121052284845e-05 -1.8596523177390858e-05 1
270 -5.4809919244028685e-05 -1.9628152734943138e-05 3.2528958716300776e-05 1.583553852568373e-05 1.5124834391971834e-05 3.118028552856126e-05 7.031623120596809e-05 -4.273065259775389e-05 1
271 -6.378508062525529e-05 1.4831798692467927e-05 -2.127049055956732e-05 -2.6939581190092818e-05 -7.491326601384141e-06 -3.0415092882235126e-05 8.376059188435329e-06 1.292458035715366e-06 1
272 -6.48510295917527e-06 5.706554683461994e-05 1.5075171335666912e-05 -9.335223420597059e-06 5.302858506584168e-05 5.860777912052444e-06 -4.656211881561988e-05 -2.5059393644155438e-05 1
273 -6.925081138992208e-05 5.1046007986320656e-05 -3.045130601333341e-06 -1.1710642447486446e-05 5.027315281001286e-05 1.3724571851922772e-05 1.8152459036158363e-05 -2.327683719855258e-05 1
274 -5.340677522228297e-05 3.0319686315508215e-05 4.3251784913056465e-06 -4.6407789177861425e-05 -4.507675571238352e-06 3.518020718376202e-07 -5.378729144278224e-06 -2.033476030866691e-05 1
275 -5.711720122877853e-06 2.1865141174492777e-06 2.2700005902511945e-06 1.51197895637642e-05 2.702140512377178e-05 -7.3586930881812454e-06 -1.1403904902883947e-05 1.0941391838357656e-05 1
276 3.5495190623538586e-05 -7.1489103661361165e-06 1.9759836924154306e-05 2.448963352889933e-05 3.229216164146683e-05 4.4458022667995567e-05 -2.1660403466485972e-05 3.4745523331277976e-07 1
277 2.6017305868195153e-05 -3.637532226203112e-05 -1.6231572990253404e-05 -3.713905008077679e-05 2.316986150725095e-06 -1.9208891488697814e-05 2.1498370186906253e-06 -1.9851088542471335e-05 1
278 -1.6590529280429965e-06 -3.1776734988280485e-05 3.773038170162399e-06 1.4482049283023325e-05 5.4646594160440634e-05 6.932238280271171e-06 1.212704417660324e-05 -2.6939033221683136e-05 1
279 -7.655059744146656e-06 1.9119346697137058e-05 -2.308699449833259e-05 -2.6098601786716053e-05 -9.774730304138245e-07 -2.254810334434709e-06 -2.2562662661082293e-05 -7.624330467827501e-06 1
280 6.933463395988994e-05 -3.106348397980127e-05 -3.484181210915429e-05 2.356484052249481e-05 1.2307422798450919e-05 -1.551296551621654e-05 -3.955417540317295e-05 -1.861558391096408e-05 1
281 1.6243023141986266e-05 4.918861289642868e-05 -2.5914549371741427e-05 -2.112997037786836e-06 1.6878616497372453e-05 -5.953168350304802e-05 2.5844654198472495e-05 -2.9561264305160935e-05 1
282 1.2780747006456806e-05 2.25480587612326e-05 2.7114659786596124e-05 1.377310952233851e-05 -5.943226229324953e-05 -1.9619481178899785e-05 3.4551282338320023e-06 -4.874497152994674e-06 1
283 -1.3345465806253505e-06 5.0412312403995716e-05 1.5211293410741979e-05 -5.356873563861631e-06 -4.615842527801201e-05 -1.1387031221370432e-05 1.040920370347388e-05 -2.726118131376194e-05 1
284 -9.187737752214993e-06 4.70455875312654e-05 3.171674407396064e-06 -7.65944966578099e-05 -3.195220906779509e-05 4.715472896390205e-05 -1.3663444825709451e-05 -4.96035805782249e-05 1
285 -9.344366103760166e-06 1.573461372502352e-05 2.7623512223943138e-05 6.923966880484133e-06 1.146397840530422e-05 9.075231192862914e-06 1.7437207798025002e-05 5.693576121390246e-05 1
286 -1.4022710404195995e-05 -4.4221476616923916e-05 1.1166537881972585e-05 2.8537019202580445e-05 3.006752016340365e-05 -1.066512457647749e-05 2.9123611129703194e-05 2.3193559988780132e-05 1
287 4.576512690537459e-05 -6.034706415031753e-05 -1.2685014410010631e-05 -7.652976211498849e-06 -1.2255553750969382e-05 -2.2250518744090078e-05 -6.906688764184358e-05 -1.0867486843078353e-05 1
288 4.855764782249806e-06 -2.8317518298855684e-05 4.8384529588227746e-05 3.3439531789656445e-07 3.227572637960339e-05 6.535510318249209e-06 2.066018274733145e-05 6.981038848339057e-06 1
289 1.8617355472333546e-05 -2.5573076130322363e-05 1.2403017702219644e-05 9.158323341251094e-06 -7.207136453182971e-06 1.012455797311692e-05 5.5859656154942055e-05 -6.759923552386051e-06 1
290 2.0825056988116786e-05 2.38331542819265e-05 2.8506332023607007e-05 2.929104429841313e-07 -5.958471757393405e-05 1.2917570466211657e-05 -5.548685646557632e-05 3.674843077353078e-05 1
291 3.857400811045666e-05 2.084946702945654e-05 -2.255277845452628e-05 -3.881268683250136e-05 6.51885960352918e-06 -8.400859989035495e-07 -1.2288520653929143e-05 2.1165320183190945e-06 1
292 0.00012267467177687195 4.450111713188599e-05 2.6237465146582973e-05 2.1098422288833893e-05 3.6986553596304826e-05 -4.751791822518622e-06 -5.1369032691882346e-05 -4.714653325150245e-06 1
293 7.507248066367144e-05 2.3303770811606438e-05 -4.409148762233259e-06 -1.729424357505783e-05 3.7550731296078264e-05 1.8736425385164093e-05 1.6288515516098977e-05 1.5540032828024286e-05 1
294 2.349103360833854e-05 3.771764253495529e-05 -2.962961451330794e-05 -5.466104946876419e-05 3.752028258625602e-06 8.09975640680361e-06 3.023161421063444e-05 3.9283395402059195e-05 1
295 7.37680132613427e-05 -9.842316772726104e-06 -8.806625873744233e-06 1.2008357397034489e-05 6.329761694355444e-05 3.7002480092847905e-05 2.7984929049959507e-05 -9.694698888732264e-06 1
296 -1.4408294280659728e-05 1.3943816310134635e-05 -2.7516531605859002e-05 -5.9609087745075665e-06 -2.8694487250480658e-06 3.98228022280702e-05 -8.86743257399194e-06 -6.0981240964315387e-05 1
297 1.4112006659923558e-05 -5.9214235923542224e-05 1.0657756109436704e-06 -2.1676175210530913e-06 -6.8425998954442074e-06 1.97585145446176e-05 -3.832162195881768e-05 -1.2925355623859007e-05 1
298 1.6448857054344536e-06 -5.3192572007860174e-05 -4.02201677317493e-05 1.6713883581418397e-05 2.8077365761038477e-05 -1.1248801910751586e-06 -4.9021139961738316e-05 1.7649243667470407e-05 1
299 -8.755696603864947e-05 -1.1524401338508019e-05 -2.2186595618553997e-05 -2.8995982144174134e-05 -1.1047750426992256e-05 -4.582438910681496e-06 -1.6105206259661205e-05 1.4717581955378767e-05 1
300 -4.295543962557079e-05 1.7466903005771393e-05 7.029329141086986e-06 -1.74389301649077e-05 -2.164849709580715e-05 -4.118740747618597e-05 7.26832944667056e-06 -8.864688681283953e-06 1
301 -8.35026274391967e-05 -1.072152353872823e-05 -2.25258507313738e-05 3.939193980426651e-05 -4.2569465297332746e-05 -3.6033769993351345e-05 2.7749241077642497e-05 3.3919078936599084e-05 1
302 -4.365426877755406e-05 2.422953576614879e-05 1.5405884913832822e-05 -5.817749492363276e-05 -4.652984211263891e-05 -7.018335021267796e-06 3.8747264153228154e-05 -1.089325220416849e-05 1
303 -1.0705343938803851e-05 5.197031550448306e-05 5.267211833195366e-05 -1.4421211828707815e-05 -4.209180933356515e-07 4.555138053357106e-05 -3.8054981879785714e-05 2.5689526763845546e-05 1
304 -3.584916888924228e-05 2.8006778408454816e-05 -6.065476185006857e-06 -2.3950290017530732e-05 -2.4577548191456877e-05 6.910359106343863e-06 2.4888483204067053e-05 -3.2434050797125805e-06 1
305 2.9044010146797548e-05 5.44987624817436e-05 -2.4290469325324e-05 1.8492312710323075e-05 2.0483577426493674e-05 6.509065746876025e-05 -9.402604763989557e-06 -1.145204504170319e-05 1
306 5.3118649445308386e-05 2.655084404110063e-05 -1.33771788344178e-05 -1.0079066923251222e-05 1.3528270955451012e-05 -2.0689606018366536e-05 -1.0263349700375374e-05 2.239819184210866e-06 1
307 5.293940982944503e-05 -3.914275617423604e-05 -4.60596115507668e-05 -4.791493668795528e-05 -3.148532666765334e-05 -3.2829192954998435e-05 -3.865268965497726e-06 -2.9722003839940126e-05 1
308 1.4969547766629288e-05 -5.498682590998603e-05 -1.1012696521199836e-05 3.306260828807806e-05 1.6548689735762918e-05 4.0323538190009684e-07 -1.1525657014520953e-05 -1.083081641557553e-05 1
309 3.740824983198085e-05 -3.0017585455802775e-05 -2.2690437652515012e-05 9.120188903557871e-07 -5.079048921657568e-05 5.292844604264926e-06 1.9053731048967153e-05 -7.001715672021886e-06 1
310 5.420793927371952e-05 -4.427905675762618e-05 5.436010382581532e-06 -8.95618666648887e-07 -2.5074416860852083e-06 -2.858054200118691e-06 2.677625750236792e-06 2.1198968586592495e-05 1
311 3.286464294263691e-05 -2.626903607050705e-06 2.0382901804290828e-05 -1.7544173656669563e-05 1.9148886318155825e-05 -1.904978809567476e-05 2.7266498402203307e-05 5.526602193483099e-05 1
312 -3.787263278837569e-05 -3.703599150563361e-05 -1.3701823331120576e-05 3.0796878357232584e-05 1.3826919675631123e-05 6.222839966875739e-06 2.5216708898870978e-05 1.211133598121055e-05 1
313 1.4095374438821786e-05 4.4868067772715165e-05 3.8042511318423975e-05 8.969902097656359e-06 2.2631485037348868e-05 -7.678176827144635e-06 -1.5036520288975148e-05 4.266919101047434e-05 1
314 -3.126902391332217e-05 6.025546995452616e-05 3.0935003602847544e-06 -1.4662891272999107e-05 2.7457231456003307e-07 3.5899850444192854e-05 1.38810018569856e-05 -4.278682899326148e-05 1
315 -5.335973842041757e-05 6.741178595888033e-05 -5.344921546248902e-06 -4.501196729335452e-05 4.732622213556359e-05 1.7059812745319816e-05 -1.7503214703200098e-06 -9.285443402051715e-06 1
316 -2.7796063315463047e-05 -1.4635991287711978e-05 2.870641061289971e-05 1.3554882143106401e-05 6.117048137183748e-06 3.637870133389884e-06 -4.374200917854453e-06 2.6141003005231646e-05 1
317 -2.923339172295626e-05 -4.1640017721649826e-05 1.5361003072311866e-05 1.5780958201678696e-05 1.2006028812794168e-05 1.019320924045097e-05 -8.013509458438697e-06 1.9687067609638133e-05 1
318 2.265650570748508e-06 -2.1910181036297564e-05 -7.797282806384998e-06 5.0515992469395803e-05 -4.337440205113582e-05 1.2494702607394971e-05 -4.1977760690592935e-05 -2.705833458074331e-06 1
319 5.2352897565217225e-06 -7.063630408428331e-05 9.725939760844077e-06 -9.500951554804897e-06 -5.24801585640311e-05 2.0989202269356302e-05 3.5875154449723374e-05 3.72531085574143e-05 1
320 4.515294973757402e-05 -2.32928433518033e-05 3.320391552239492e-05 4.205958963350246e-05 2.8339217571890626e-05 -2.3538440055745028e-05 5.033621330373048e-06 1.0987903607285715e-05 1
321 -6.164308234421565e-07 -3.845321935917513e-06 5.682479564948473e-05 1.5998404145019786e-05 3.683532703604391e-05 4.572868253217627e-06 -1.8304580995955373e-06 9.531784752024387e-06 1
322 1.9351014318532344e-05 -1.506859166802549e-05 3.165761392923414e-05 3.430855857166296e-05 -2.477765788968376e-05 2.4199970113846612e-05 -2.173999390150523e-06 8.495214362260765e-06 1
323 4.1524636328092416e-05 5.786844626854007e-05 2.0679550465797218e-06 3.52540498825484e-05 7.735320993998119e-06 1.5604606811738314e-05 -2.0831564788431163e-05 5.396647526762085e-05 1
324 2.883000290218167e-05 5.152074593271667e-05 -4.0204645280288536e-05 -2.0567550576977525e-05 3.094709219796826e-05 7.172277957315119e-06 -4.784449337072315e-05 2.5957248224595476e-05 1
325 -3.4060078792589646e-06 8.183296385807275e-05 -2.1958919650924917e-06 5.117667150513248e-06 2.947386446479121e-05 -2.243732427136656e-05 -2.482117019584849e-05 -4.912460509952683e-06 1
326 2.4216356107935776e-05 -3.669021120689455e-05 -4.170086499722742e-05 2.059302317609481e-05 -1.5074457814175094e-05 -9.805650323007078e-06 -4.6420260048504146e-05 -1.6974482858799555e-05 1
327 -2.6148637902551603e-05 1.4761370686999664e-05 -1.9280754155865973e-05 4.1434403005812414e-05 -1.7113900604495016e-05 -1.7077295039629368e-05 3.843393879744506e-05 5.2865038090979296e-06 1
328 -3.384868336903423e-05 -2.194956928321632e-05 3.3826839438551484e-05 3.6655070490642044e-05 -2.04198294817564e-05 -1.0608452519777054e-06 2.253920691689327e-06 -2.465600276291494e-05 1
329 -3.5895963551454934e-05 -4.568555855063719e-05 2.8505236973418392e-05 3.0185625707780026e-05 -8.230234958975201e-06 -5.348828596520292e-06 1.660730755139089e-05 -1.4629711223175289e-05 1
330 -1.602875858472925e-05 -3.996282266556282e-05 -2.4234964443465518e-05 -2.3920917821991163e-05 3.6176467400777554e-05 -3.910536978582465e-06 4.1008852347457775e-05 -1.2840906517872753e-05 1
331 6.89489655421244e-06 4.498795800805834e-05 -2.6434668616581983e-05 -4.7445362497494414e-05 3.216475328218083e-05 -2.067022763482684e-05 -5.176591026558444e-07 -1.4647955261289623e-05 1
332 1.3469597071726666e-05 -7.332432511997964e-06 -4.498502197082652e-06 1.1245383163913356e-05 -2.520772215685655e-05 -1.750210074114722e-05 -8.684570839963295e-06 -3.572038585565696e-05 1
333 1.2972775864781864e-05 1.2880181956500799e-05 -9.988723539710713e-06 -6.784412323293115e-06 -4.97541772664634e-07 -1.639358656080785e-05 1.7276564146671932e-05 3.58994531200444e-05 1
334 2.4454165228258833e-06 3.479560243905766e-05 -5.990428885866173e-06 9.137183625962618e-06 3.914448828008136e-05 1.271648857545247e-05 -4.433536347024202e-05 1.1349890786173974e-05 1
335 8.597937729370062e-05 2.1920778750065027e-05 2.4890870152945812e-05 -1.725288852879865e-05 -3.713847898805685e-05 3.5292254708160043e-06 -4.391191801865786e-05 -5.9942753223397945e-06 1
336 6.962441370237692e-05 -3.8769065082492544e-05 -3.1987419897847447e-05 -2.580080612903944e-05 -1.5829964927739991e-06 -9.142919641155232e-06 3.4978409542402184e-05 2.3858708227292436e-05 1
337 4.631061652912928e-05 -7.931106360807671e-06 9.830744424620684e-06 -2.1549558882834377e-05 2.1430258838915308e-05 -2.7801106358980027e-05 2.0884424847555772e-05 2.9653562552970775e-05 1
338 1.1074986673556219e-05 -3.342906460061861e-05 1.0007747707741833e-05 -7.153795925251683e-05 7.5564554621365315e-06 -2.8338499459951757e-06 -1.2657028264247755e-06 1.766331282244569e-05 1
339 1.487446956132188e-05 -5.1016641096165386e-05 -3.5350667706344516e-06 1.6888871020206118e-06 2.8733477895253185e-06 4.047984182126701e-06 2.5984226122963833e-05 -2.7150863825853688e-05 1
340 -9.401522367748419e-06 -8.882505052461116e-06 -4.336528742342989e-05 4.491167019501339e-06 -1.4634462549326085e-05 -9.267759611827625e-06 -2.2620187580360553e-05 -4.238767892511102e-06 1
341 3.124038208179744e-05 -5.894151765857715e-05 -2.9240250061970687e-05 -3.2548364254087614e-05 4.3185457165702525e-05 -1.1558492638032175e-05 -6.409765086918553e-07 -1.0069573527655993e-05 1
342 -6.65242603868901e-05 -2.285580056055502e-05 6.1456090143414e-05 3.4801773024356374e-05 -2.132344544480681e-05 1.6189352576542144e-05 -2.0788069316659412e-05 -4.440919097115552e-05 1
343 5.546261041727819e-06 5.0807088385947124e-05 2.6151306276197486e-05 -1.1746631230489319e-05 -4.169393350049656e-06 1.8744138841453083e-05 9.78740093370268e-06 -9.840936782426108e-06 1
344 -7.245700854354294e-05 5.448823068040854e-05 2.6975240980902833e-05 -2.993970722585393e-05 1.5968984541899427e-05 8.288542378342316e-06 1.8753706580808343e-05 2.1799387492975182e-05 1
345 -2.4662604552103388e-05 -1.0687317467730552e-05 -1.3337988142071983e-05 2.2228182938175186e-05 -1.3550097588149276e-05 -1.7351083096441048e-05 -4.553375854811596e-05 4.381618886377348e-05 1
346 -6.683608325863373e-06 6.709693205750486e-05 2.4193134669486846e-05 1.4417709038585041e-05 -6.108221379488227e-06 -4.094102603055042e-06 -1.068910911480312e-05 6.586851886037501e-05 1
347 2.8492914216998868e-05 3.7347211455720487e-06 1.1637419354156996e-05 -2.5271722946407938e-05 3.761266796473067e-05 -1.6526727395178505e-05 1.2527135815561645e-05 2.6649440743578365e-05 1
348 7.082287026050494e-06 -8.885135370673129e-06 2.7005212140037895e-07 -1.4110274221776784e-06 -1.4417462223187555e-05 -1.1237085744242606e-05 3.698975934127338e-05 -2.713415817128917e-06 1
349 1.1452896408741985e-05 -3.938754905043358e-05 2.750926701743058e-05 1.6890165829111963e-05 1.4008229455806423e-05 -6.4380299727447875e-06 1.4334061754323626e-05 -1.60890281237662e-05 1
350 2.4358020198591487e-05 -1.0568376439179502e-05 2.1856941972976612e-05 -2.4547746148770083e-05 -2.1388161322714396e-05 2.717553820335242e-06 4.315330936673775e-05 -4.788912911172485e-05 1
351 4.0889696424114904e-05 -4.9011530100832684e-05 -1.585827483813864e-05 -9.110710451606036e-06 -1.0512708585922273e-05 -1.3344898491480211e-05 1.801765094092538e-07 -1.338138916576446e-05 1
352 -9.210598563267156e-06 8.874833365946667e-06 1.8821804178722015e-05 2.1079357750566726e-05 -3.851836240660205e-05 7.472953814603771e-06 1.6899471395173085e-05 -2.5780051710989627e-05 1
353 1.1649025161572746e-05 9.69234595568636e-06 4.605376646420659e-05 4.8112400925314327e-05 -4.160890983325502e-05 6.234817514319974e-05 -2.28806430288331e-05 2.4516832358185645e-05 1
354 1.6444572246894876e-05 -1.4387753336580538e-06 1.2331694845977476e-05 -2.6883436066515993e-06 1.3858250115809767e-05 5.766807559515643e-06 2.9908487134256173e-05 1.8849885786515566e-06 1
355 -2.053734515457052e-05 7.411521715856375e-05 1.4509899121465084e-05 1.8295334858022197e-05 -1.661466680646492e-05 -2.6131569534961853e-05 -1.4193053581317539e-05 -1.5520534642014715e-05 1
356 -5.599821634590759e-06 5.017736158425075e-05 -3.87825723831001e-06 3.577297547060881e-05 3.4211734844128244e-05 6.084972910013481e-06 -2.0547294288576003e-05 3.9384416235888504e-05 1
357 -2.5907171202442916e-05 2.4026689220574384e-05 -8.490125640164217e-06 -2.224475815742994e-05 -3.67159857578823e-05 1.58217080889322e-05 -1.958502634741551e-05 7.64882807249206e-05 1
358 -6.313374174989812e-05 -5.443503304626741e-06 1.275346789033603e-05 3.823283697418239e-05 1.6147414235805413e-06 1.430606050468186e-05 -4.608868543646775e-05 -1.693778864229417e-05 1
359 -4.9790220706432205e-05 -9.689806559787879e-05 2.924505850597174e-06 -5.607069054026084e-05 -3.305489915218622e-05 -1.3429844850335453e-05 -2.0782145898776908e-05 9.910212555176693e-06 1
360 -3.0995663979883395e-05 -1.2751078415013968e-05 1.8809593317816954e-05 2.8520319734034524e-05 -4.796000022635392e-08 7.586672520416744e-06 1.2787842547979784e-05 3.541417434775643e-06 1
361 -2.290360884921666e-05 -4.265991671670773e-05 -2.043895995824914e-05 1.054042074774574e-05 -2.350379352128889e-06 -1.6579343765919124e-05 -1.6556120483114817e-05 -3.0259968194569716e-05 1
362 3.977040360583211e-05 -2.382252968681053e-05 -2.1570000489331755e-05 2.0213693740050457e-05 -1.4011220244859324e-05 -3.516251567530582e-05 2.5530557230478324e-05 -1.3427424739152827e-05 1
363 1.6727562724321842e-05 -2.5816158994778055e-06 2.8564730569752873e-05 5.009322716577925e-07 -2.9977928153630756e-05 1.3596925102804506e-05 -1.2124743106543101e-05 4.719809928823666e-05 1
364 2.5850452764198676e-05 -3.40056001397986e-05 8.93412430389185e-06 4.8614944806505715e-05 3.9398007213634744e-05 4.5773857218914135e-05 -2.549400463453659e-05 2.280380989941947e-05 1
365 3.0351339600491247e-05 3.9129076940879975e-05 -3.182381071849331e-05 -1.6111394122067907e-05 -1.6906167434090383e-05 2.2463882003565407e-05 2.0017978041741387e-05 6.92049323327052e-06 1
366 -2.700807845302295e-06 3.2741561820824676e-05 -1.865291207356815e-05 2.1741893917362276e-05 2.9454621320429615e-05 2.6409639650772078e-05 -1.8880485485425514e-05 -6.848832805723699e-05 1
367 -2.5029332265232377e-05 5.761162689605477e-05 -1.0031373482995598e-05 -1.8768115456627813e-05 4.106650733590585e-05 3.1628998637208174e-05 6.112180479946662e-07 -7.335077276599347e-06 1
368 1.4016236564721218e-05 3.187996913850038e-05 4.00011820329902e-05 1.0561685605930668e-05 1.8150725825978534e-05 2.9231752726754285e-05 -2.9241900025610473e-05 1.8871547311851072e-05 1
369 -1.1651743474083104e-05 -8.256449215269862e-05 -5.32042385496453e-05 -2.545294028796714e-05 1.3280580714814536e-05 2.844989133507411e-06 4.6091676793916e-06 4.87735870671673e-05 1
370 -5.7312122089053266e-05 -2.917143044633661e-05 7.61088807034539e-06 -1.8406827913458388e-05 7.081686270735241e-07 -3.9998733352108625e-05 3.52476554318757e-05 -1.7040363813260845e-05 1
371 1.2623231707359962e-05 -4.6572421299082826e-05 2.570133913497958e-05 -1.3325717247788596e-06 -7.685958065132455e-07 -1.4600733330550196e-05 2.978098234156941e-06 7.949967360351187e-06 1
372 -6.908640085286053e-05 -2.384999761349739e-05 -1.5252471651427843e-05 5.7491601740370974e-05 -2.2432692477904636e-06 3.8630803792413984e-05 -4.890558270192208e-06 6.482191038372699e-06 1
373 -7.475732966035417e-05 -1.4174967400548618e-05 5.263366769731169e-06 3.965009577399667e-05 5.54956944190678e-06 3.459300902982498e-05 1.6018227755073005e-05 4.0685033486617146e-05 1
374 -2.0202476962296885e-05 7.703470446213787e-05 -1.2134905072853075e-05 -1.9161545854941727e-05 -3.0251321242225856e-05 5.827561678895176e-05 2.048618931544744e-05 -8.353018334507713e-06 1
375 1.751851401149857e-05 3.878829534496818e-05 4.915318678438976e-05 -3.869582081849779e-05 -6.634002707856364e-06 -1.1563034598570637e-05 -4.934206691021504e-05 2.6508180119492354e-05 1
376 3.263254494354346e-06 5.029171791587152e-05 5.89942983582403e-05 -8.831092295690207e-06 -1.052882456642888e-05 2.9666042430999007e-06 2.468118382458524e-05 -1.4167825632753747e-05 1
377 6.347447073902928e-06 7.60804526592018e-05 9.46598309595089e-06 -5.111820657512052e-05 -3.0634794986727705e-05 3.7530896595680256e-05 1.0048207076970313e-05 -1.9054898275931226e-05 1
378 1.9962931871130618e-05 7.271615010988094e-06 1.8393334007004097e-05 -3.3956584871469735e-05 -2.1023728466761453e-05 6.8238938715847216e-06 -2.495864512386258e-06 1.4296479565917747e-05 1
379 -9.128985828093767e-06 6.494703807943714e-06 2.7289590484436804e-05 1.2170463678732085e-05 3.4777934940397973e-06 -2.397090064149272e-06 -2.0871278819287547e-05 -1.7999648109947118e-06 1
380 6.1001504300869626e-05 -4.1555763467928523e-05 -2.2245099733710255e-05 -1.2306177219134658e-05 5.021257431898254e-06 -9.337849929521174e-06 1.2132582076578518e-05 1.307109401872576e-05 1
381 4.775766235795343e-05 6.6014760440463794e-06 2.489646810930902e-05 -2.3355976603698998e-05 -2.2588361164406807e-05 -1.8942869114956105e-06 -1.1279383930985363e-05 -2.845816817402357e-05 1
382 1.1845056311818275e-06 -5.383690016051936e-05 -1.6796193494030145e-05 -7.894737153875141e-06 2.946127125795828e-05 4.980951031230981e-06 6.179522690138673e-05 4.262704650491234e-06 1
383 6.062809334145667e-06 -2.8176549532838287e-05 6.4122994610885e-06 1.0881348929276592e-05 5.19177831464756e-05 -2.1133011624439217e-05 2.147615145444339e-05 5.193764940353096e-06 1
384 -4.2940542074743395e-05 1.660948136281711e-05 3.169058902009762e-05 -2.1429410094435747e-05 -2.2334669729926734e-07 -4.313385655019259e-05 -3.147016149210841e-05 2.6200739440431316e-05 1
385 -1.7311892851882052e-05 -7.2499741322195685e-06 5.7365091114607425e-06 -1.3060310785775582e-05 -1.1770541444388403e-05 1.848315064187258e-05 -2.9043333973358666e-05 -2.2634130317045807e-05 1
386 -4.0805141566797245e-05 6.659247292280416e-05 3.095400753724624e-05 -1.6626543009040578e-05 2.34344241729912e-05 -1.9603557336760224e-05 4.565523367267e-05 -2.834427563549321e-05 1
387 9.79241585013516e-06 2.1267796096566007e-05 5.033116136986501e-05 1.478301822131211e-05 -2.540041323520555e-05 -1.3055961988562671e-05 1.9529530130593543e-05 2.6316110440389036e-05 1
388 -2.0301034132831304e-05 1.2660673313365179e-05 1.895882581610164e-05 3.294960675270499e-06 -3.2337621483459394e-05 -2.0324350616004516e-05 5.877998578791627e-06 3.038706041244234e-05 1
389 1.4987241599251216e-05 1.9196028825440438e-05 7.182269025909094e-06 1.8720347149561925e-05 -1.6668771255171392e-05 -3.8307740064553545e-06 -2.0603268033486918e-05 -3.1218565267692786e-05 1
390 5.642029374948238e-06 -2.9330748385505004e-05 1.7191312112725322e-05 1.365279577231118e-05 6.066106783096551e-06 1.3915416641938858e-05 -1.0670774056869158e-06 1.0322284880560015e-05 1
391 3.8722155850003685e-06 -2.1372252921211787e-05 1.6710442132150235e-05 -1.674203570180508e-05 1.2958024748211682e-06 -1.559006274073399e-05 -1.3162667412902875e-05 -2.8123233877553868e-05 1
392 5.59484754314826e-05 -3.479222618983352e-06 1.343584635568343e-05 4.930489879859535e-05 -4.7311424142097925e-06 7.579406037776586e-05 -5.68823538408051e-06 6.379833793900411e-06 1
393 2.424266491842993e-05 -1.6998230250720456e-05 2.0890373197156112e-05 -2.8479098263270984e-06 4.441799617794052e-05 5.9787321158365185e-06 6.762134652754978e-06 -2.272494236284294e-05 1
394 4.379584389400937e-05 -5.0909670572464174e-06 -1.5205993233432172e-05 -1.9411860203709096e-05 6.679408449391714e-05 -6.586931254475885e-06 -3.6424635519531696e-05 -1.7455536493314314e-05 1
395 1.1412265517167325e-05 4.9942322466091065e-05 1.3869913043132837e-05 1.6915363794413136e-05 -1.612150766593324e-05 8.511011087538636e-06 -2.1901486602764463e-05 -1.549107457535029e-05 1
396 4.007785255213529e-06 4.020382893467345e-06 2.660523722145022e-05 1.7215292524472192e-05 2.441663424945325e-05 9.828266506074078e-07 1.9420192471628666e-05 -4.403223511606362e-05 1
397 2.5782209760839535e-05 3.428798959173738e-05 1.567774000372914e-05 9.500582476215329e-06 -2.4676378863422167e-05 -3.745099438477617e-05 -1.7801354154574083e-05 1.4122932031822805e-05 1
398 7.492565442934237e-07 9.064143401465649e-07 -2.4527484186705365e-05 -1.8080892148520983e-05 -8.932626506670392e-06 -3.405127077131631e-05 -3.555129415350332e-05 -2.054588241018885e-05 1
399 -1.5366530433372957e-05 -3.195734467380884e-05 -2.895087749294153e-06 2.6463820403545385e-05 -3.2544493435337754e-05 -5.161143960263487e-06 2.5618918343769317e-05 -1.0456709759095232e-05 1
400 -6.2562408957282e-05 1.22620314187873e-05 -7.655051974288695e-06 2.76123756301392e-05 1.072413477817997e-05 -8.571116322745918e-06 1.199226326493826e-05 8.011237846150945e-06 1
401 -5.828338907388362e-06 -5.279747924940041e-05 1.0301516695404922e-06 -1.5378919901159352e-06 1.760370354099462e-05 -2.5629479861104396e-05 2.54244262059464e-05 1.1658219304260415e-05 1
402 -6.587871109891587e-05 -1.652057963753888e-05 5.5852327019943283e-05 2.5045849238735197e-05 3.567461918066173e-05 2.1342845400647026e-06 -4.153762299346275e-05 -4.610301127918812e-05 1
403 -2.6770290445331407e-05 -4.949040577648777e-05 -2.2864406958183786e-05 -1.5686670992168837e-06 1.5389632196532206e-05 -3.631893866905368e-05 -1.122194050700962e-05 3.7746767078007884e-05 1
404 -4.25913705885637e-05 1.7532790664107883e-05 -1.2118269038724848e-05 1.3644843996248819e-05 2.7433187680071682e-05 1.853204417462554e-05 2.2728990055346913e-05 -2.8789838335198904e-05 1
405 1.774316968951996e-05 2.2138734881782594e-07 6.48854413928846e-06 6.456154674930673e-06 1.2128063971739525e-05 8.423916901504763e-06 -2.109524946311808e-05 -3.3746685307392904e-05 1
406 4.766991325590503e-05 4.436462402640406e-05 2.8734421023945447e-05 -1.1183233546966996e-06 -3.512910901692401e-05 2.4153242025102654e-05 -9.259265241527676e-06 8.55008643552553e-06 1
407 1.7195129204431666e-05 8.407367522754561e-05 -2.1914120604579923e-05 -8.435743852654367e-06 2.6862175674329097e-06 -2.7304558177173954e-05 8.26298821468988e-06 4.029776193668726e-05 1
408 2.916475800216158e-05 4.196020312189875e-05 -6.873588465096389e-05 -9.732300121210165e-07 -7.826057148155134e-06 -2.0462440060259623e-05 2.7036261740713305e-05 -8.156092040595705e-06 1
409 3.947914192710167e-05 -1.563055821310697e-05 -4.7920396794126916e-05 -2.8299661001924028e-05 2.4027337153005407e-05 -5.2748766171999295e-05 -1.915788374039264e-05 -9.993001407244097e-06 1
410 6.89221690826146e-05 1.6794681816612926e-05 -1.392926317632749e-05 3.261284242788878e-05 -1.851289551252799e-05 2.522749509335014e-05 -3.397193114807539e-05 2.6831445794728932e-05 1
411 -6.636268255682726e-06 -7.591912102119265e-05 -5.4285903269078515e-06 6.933604493005372e-06 -1.2368710763142804e-05 1.3848837649883094e-05 -1.4574847091601687e-05 1.550930984828395e-05 1
412 2.2804400723021176e-05 -5.974024308405465e-05 -1.1034557809148747e-05 3.788519894131654e-06 1.3756343575842481e-05 5.1544978818290214e-05 2.3485510544954525e-05 2.4399748745396035e-05 1
413 6.933151577489544e-05 -2.540315292582004e-05 1.2116087782792558e-05 1.7600376858041353e-05 -2.5224149439706328e-05 -1.1097540910468904e-05 -1.265423166730835e-05 1.6190349430489043e-05 1
414 -3.868293455734204e-05 -1.522916307944074e-05 2.7186365503711614e-05 2.157876846760347e-05 -4.043025076031176e-06 -1.6749877421955562e-05 2.8381868291329717e-05 1.9347279522746644e-05 1
415 -7.38669367670267e-05 -1.0717338265235354e-05 4.137886550419061e-06 1.9470742928025785e-05 2.2752537373494283e-05 7.097650029386837e-06 1.46311882839714e-05 1.6034200594538407e-06 1
416 -4.387171560967514e-05 3.2831436315287805e-05 4.747796660027068e-07 -8.669812504647469e-07 -4.713932261108677e-05 -9.937083373235782e-06 1.4051413272287965e-06 -7.034249797642525e-06 1
417 -2.883093589470355e-05 5.467940622305706e-05 -2.6973929676215847e-05 -4.070105534878028e-05 -8.704244770916872e-06 1.9102860137544744e-05 4.218882598716596e-05 1.9553205977368504e-05 1
418 -6.451053491291215e-05 2.993882753565687e-05 6.415859527038236e-06 4.439777923089805e-06 1.3482613823571852e-05 -2.292622366151902e-05 1.6235771887685654e-06 1.0508070744403225e-05 1
419 -3.916113430482944e-07 1.873647525314159e-05 -8.62892168107245e-06 -6.759544200183351e-05 -1.5536549189444353e-05 -1.3110372324276077e-05 -2.548961270418608e-05 4.140303755816293e-06 1
420 -3.5554852142748703e-06 -3.794630137874304e-05 5.387699232543912e-06 -2.3208103269725686e-05 1.214222397976288e-05 -3.204628119321664e-05 7.501634632735031e-07 -7.079083222162648e-06 1
421 3.059543499472256e-05 -1.204158790063856e-05 -6.3791043755363615e-06 -3.840680785110612e-05 -3.693019908652579e-05 -1.4597173477305476e-05 -2.0699709823967427e-07 -1.5206198679977926e-05 1
422 6.66558051691297e-05 -5.097483614684666e-05 -2.4125318119487757e-05 -6.952407324697734e-06 5.646495907913809e-06 8.122117970614612e-06 4.695947829982823e-05 -1.6722733500085486e-05 1
423 3.0785148000720624e-05 -3.415676304128951e-05 -5.855739800203831e-07 -1.251545364971633e-05 -3.873142940860609e-05 -1.277086397632539e-05 -2.6842560317945025e-05 -4.316516702809446e-05 1
424 1.0138903701754884e-05 -6.903028148730026e-05 1.4594663632323705e-05 1.5027295935357344e-05 -2.259698223952187e-05 -6.505715764078028e-06 -4.645606655281339e-05 -1.2358498754567353e-05 1
425 2.9195390180186498e-05 1.2840071892742479e-05 -1.7826177042282847e-05 2.6296371513187995e-05 -3.789229803783679e-05 -3.119069497859481e-05 1.7741546640946906e-05 4.1778030714081186e-05 1
426 1.7081570851488978e-05 4.783524466979106e-06 -5.487959366305522e-05 -5.056117640108699e-05 3.235238422396724e-06 -8.951566739279365e-06 -2.764587955380295e-05 1.638314520751268e-06 1
427 -4.372792286241936e-06 5.447303438869136e-05 3.4150570753175196e-06 3.070985920835961e-05 1.9985073872033406e-07 -2.883374870183403e-06 2.660780465617956e-05 -2.4461022001035862e-05 1
428 3.454204366263496e-05 5.1853113119812555e-05 9.520731320941827e-06 1.3127399349314939e-05 4.692841188329106e-05 1.9812685291815166e-05 -4.012639947509809e-05 3.508675961918761e-05 1
429 -3.230302987634664e-05 1.423498216503497e-05 -3.198134930438166e-05 1.3155050453097392e-05 -1.6284357251688805e-05 2.504240949836844e-06 -7.102475134019575e-06 4.8125320043396296e-05 1
430 8.311199054282025e-06 2.726428835704271e-07 1.5994427842213687e-06 -9.336074158737877e-06 2.7650157287569655e-05 -8.22299675833443e-06 -1.0533431866142483e-05 2.446482159162411e-05 1
431 -2.6240240660666864e-05 -1.809617427109372e-05 -3.953276953777482e-05 1.7604758628079175e-05 4.852167347954672e-05 1.80306343199948e-05 3.6544979188682626e-05 -2.115255340443327e-05 1
432 -3.419428814078753e-05 -5.57247366392622e-05 -5.694138639533572e-06 1.9305286933812623e-05 2.545515327582466e-06 -3.531602556503054e-05 -3.2875727638443835e-05 -3.452909828726934e-05 1
433 1.430025568965029e-05 6.748962984292775e-06 3.406145610000532e-05 -4.7399629978651613e-05 3.55268984517446e-05 2.341001042536618e-05 -3.8632498638218944e-05 -7.580040417762438e-06 1
434 4.4482526575469574e-05 -2.2943125306414923e-05 -3.272737630969964e-05 1.5268553894904854e-05 -5.34375149020147e-05 -5.570554393930284e-06 2.844891923500122e-05 4.5985538928299587e-07 1
435 3.068597927023974e-06 -8.169967251031219e-07 2.436879537716454e-05 3.2750992321673755e-05 2.1858560711159686e-05 2.7034369848428663e-05 1.8322713935938364e-05 6.638216227911799e-06 1
436 3.0773005745603e-05 -1.2711513958317e-05 -3.0309207326493143e-05 -2.388278772049522e-05 -7.050362048380242e-06 6.036303990060733e-06 3.602031495010658e-05 -1.0449306968878133e-06 1
437 5.5151071378285946e-05 5.031132414346263e-05 -5.786169942219776e-06 1.4867255284254597e-05 -6.088201043121538e-06 3.3053397351961925e-05 1.5896083456648305e-05 -2.9762093867208884e-05 1
438 3.3709204861660003e-05 7.850854586589177e-05 -4.53077586366753e-06 1.1192875752376705e-05 1.3646970943478632e-05 -2.5915572479115015e-05 1.276769873033785e-05 -3.4845878800865645e-05 1
439 1.54089679121779e-05 5.995662274021476e-05 8.91890725770895e-06 -7.611945193663175e-06 1.1161525531129687e-05 -1.5023061938782863e-06 3.144625587958312e-07 1.642046316800344e-05 1
440 -4.0837301816213517e-07 2.215396325522508e-05 -7.806704865166322e-06 -3.964008436500639e-05 -2.3011393906232495e-05 3.920516117659581e-05 9.618082864630852e-06 -3.308970753503473e-05 1
441 -5.371735530299548e-05 -1.8557843269553987e-06 3.902966332941206e-05 -4.668953370108816e-06 3.26749888351004e-05 8.798269270466436e-06 1.178126144614734e-05 -3.3393012732614236e-05 1
442 3.028100699963132e-05 -2.6914420392434528e-05 2.1577311340272706e-05 -2.0354249549652825e-05 4.426233687747812e-06 8.800073848440787e-06 -3.850832914396663e-06 1.0113629827153918e-05 1
443 -3.926524086768421e-05 -6.101726946350909e-05 4.0137084569849115e-05 2.6223821659036057e-05 -1.902161862620442e-05 1.4211107639865323e-05 -1.8566971367528827e-05 -2.9617116091558107e-05 1
444 -1.1850451826149235e-05 -9.623059821826112e-05 2.3171397839413532e-05 -6.318057814326463e-06 -5.288665077013216e-06 1.0243780490582242e-05 1.452997029985631e-05 -2.0658579420722706e-05 1
445 -2.7885443703575805e-05 -8.259853515154336e-06 -3.140136982170095e-05 -4.24686208949348e-06 3.453197538897315e-05 4.1914869956142415e-05 1.7933711440216932e-05 -2.9758587204209253e-05 1
446 -2.383204998230562e-05 2.3848868084205643e-05 1.8142699582968053e-05 1.9623857217197956e-05 9.08157698118827e-06 -1.8103084707635924e-06 -1.520918739760046e-05 -4.744838796253741e-05 1
447 -1.6162919156912223e-05 1.6816131305706877e-05 1.3939396070620406e-05 -3.343859233232235e-05 1.612541723287651e-05 5.136362736551943e-05 1.9612532694477835e-06 -1.5416329801635207e-06 1
448 2.889876217962994e-06 9.0561183470596e-05 -2.5591194042497273e-05 5.0801733348476235e-06 -1.9991435557441106e-05 -1.3675118021124874e-05 -1.2397576970484837e-06 3.368308104033897e-05 1
449 5.7235914746447646e-05 6.096758882347548e-05 -9.414868075587133e-06 6.231847166596297e-05 -1.0688862033238004e-05 -1.4278397858993434e-05 -4.4373576114468174e-05 3.490228923111859e-05 1
450 5.9478483018564153e-05 0.0001050229958168634 -3.473808380545315e-05 3.645427018697774e-05 1.7533879591531847e-06 2.015250542000341e-05 -4.119442852761178e-05 3.670204556663243e-05 1
451 5.896598400374054e-05 7.312877535894661e-06 1.6127817191528035e-05 -1.913738252605623e-05 -1.4486002139542485e-05 -1.1586115340634906e-05 -4.6318196542256956e-05 2.154396235508418e-05 1
452 7.678853047139378e-05 -2.4720114990375885e-05 8.70507539862047e-06 -6.6385118657309075e-06 8.206849052025763e-06 -1.568943103027573e-05 -2.2085628902190897e-05 2.6301872150593564e-05 1
453 3.376025795392795e-05 3.438529260123422e-06 1.1577491198534991e-06 -2.3151951008762306e-05 3.0673521910898474e-05 1.5770004103650498e-05 1.817182159241059e-05 2.9765016971697966e-05 1
454 1.035799497060807e-05 -4.333349063529011e-05 -4.286245787194831e-06 -3.226866342289046e-05 -6.589753753956088e-06 3.3409486446920605e-05 5.9334525948461755e-06 -3.36515331961247e-05 1
455 -3.2561080660872806e-05 7.859666084788861e-06 -2.25797525637825e-06 -1.6185255142540435e-05 -6.849794122425078e-06 -3.6932693857933306e-05 3.5577378737790494e-05 -9.826323439650741e-06 1
456 3.572185531633934e-05 -5.490069127807286e-06 3.5738299364210995e-05 6.417362476077135e-06 2.13308165717269e-05 1.797732615220842e-05 1.558227665629927e-05 8.698361929567764e-06 1
457 -2.6751800386393503e-05 7.762347381080431e-05 -2.267342462739752e-05 1.076910585789923e-07 3.721468801898863e-07 1.0061018833588037e-05 -1.0736816147362529e-05 7.868657639739694e-06 1
458 -4.11304250932327e-05 -4.4413595992420465e-06 2.388071564211614e-07 -2.7514133325753793e-05 -4.335964406122253e-05 3.421833017234624e-06 1.2197083550489163e-05 1.316745105261441e-05 1
459 -2.7633784002399877e-05 -1.770370384231973e-05 -3.402542319768674e-05 4.9338035920341775e-05 -2.6180219001925905e-05 1.527102577841723e-05 -1.717344054164615e-05 1.991818481689112e-06 1
460 -5.40412737100919e-05 3.454351986743355e-05 3.4193529329174766e-06 -1.1207244341105842e-05 -2.625430299201776e-05 6.694354937312777e-06 -3.0317969976064754e-05 1.0687026053020963e-05 1
461 3.856295791175656e-05 6.471324229829916e-05 1.795869717235407e-05 -2.140182443528692e-06 -4.846881567508814e-05 -3.3057159897504605e-05 3.206982140256784e-05 -1.9743902003119495e-05 1
462 -3.064327941708788e-05 -8.29713941304409e-06 -2.655115647116387e-05 -3.066921836379091e-05 -1.2618518195355457e-06 -2.228823636680091e-05 -1.8525464494472372e-05 -1.952977565367515e-05 1
463 1.2016564595232787e-05 -3.1101193727423364e-05 -4.464299197346343e-06 1.4923647432722083e-05 -3.550990205823504e-06 -6.956344211429322e-06 1.1761258889254272e-05 1.6704946088940776e-05 1
464 2.4815027244469463e-05 -4.1088220054670724e-05 -1.95447557433332e-05 -2.1517076079113137e-05 1.9228687549170195e-05 1.1123551563615542e-05 1.1382460960414403e-05 7.021358718138056e-06 1
465 4.2699564861266016e-05 -1.5350561527346082e-05 2.3377719025569597e-05 2.2780700129766193e-05 -2.5194478986496707e-06 3.467481824772095e-05 5.71151704330803e-06 1.580940481414496e-05 1
466 6.439166122973855e-05 -2.2299641902484902e-05 -1.8393799756257992e-05 1.753377095862065e-05 7.113235987269098e-05 -9.369876869752083e-06 1.774867885623704e-06 -1.115513160868156e-05 1
467 2.015959542523766e-05 4.732823570095301e-05 -1.6824275443186617e-05 -1.1852011834159032e-05 -3.9687320593282534e-05 -1.8940293113556184e-05 -4.2709997323833694e-05 1.5795117480298222e-05 1
468 0.00010681373986165893 5.651084557509705e-06 -4.166894832475594e-05 2.2499991610743332e-05 -1.817312397325392e-05 3.248367326383851e-05 -7.050726194748618e-06 -1.579539222706952e-05 1
469 -7.2250937602200014e-06 5.418378122457937e-05 -5.685515768891411e-06 -1.2418117569842637e-05 -4.970790074471796e-06 -3.179637961252213e-05 9.925790057349504e-06 -4.4668164846122755e-05 1
470 -3.3677460283752793e-06 4.983551650517752e-05 7.57620707331792e-06 1.4758014324659758e-05 -1.6261418179702277e-06 2.924365452463792e-05 2.31174799192448e-05 1.1153525106191864e-05 1
471 -8.695459574991409e-06 8.651933835470034e-06 -1.0986587833672256e-05 -3.359747279228334e-05 1.0509053146065596e-05 1.3652230770785718e-05 2.7261799778464137e-05 -2.340803187613234e-05 1
472 -6.336310588201433e-05 7.691636863623518e-06 -1.7791747213271662e-06 -4.714404026427821e-05 9.37770409385477e-06 -4.631057287472387e-05 -2.3631413796834405e-05 3.379203432150268e-05 1
473 1.0282406860765064e-05 -6.239511191232492e-05 -8.234788435317357e-06 1.0655630769676495e-06 4.4530673189539204e-05 -1.232172369561004e-05 -1.1922100575831953e-05 3.871813896157155e-05 1
474 -5.486293250607364e-05 -2.1546742489058595e-05 -3.692857412781069e-05 -4.280818602308156e-06 -4.148992095816012e-05 -2.638584452389261e-05 2.0980033878806586e-05 -1.2476347771678158e-06 1
475 -4.815685925291218e-05 -5.733806218469851e-05 -5.516401831032069e-06 7.527829177517341e-06 2.4572905161544047e-05 -6.562866710242006e-05 -2.0794029356570243e-05 3.977406054725144e-06 1
476 -2.717795082661708e-05 1.7338517610208458e-06 6.688507153163846e-06 -7.621696574835181e-06 -1.3171329899679428e-05 -6.1375372433875224e-06 2.871855874556857e-05 -1.8300198322642862e-05 1
477 2.291395714928044e-06 3.4635947933556363e-06 3.9008773246861455e-05 -7.507706455907832e-06 2.3970166400274025e-05 3.079948508162556e-05 -1.5938566247662062e-06 -5.267974476919063e-06 1
478 -3.933545920905107e-06 1.6116613408559403e-05 2.135599651442082e-05 5.7752494313878475e-06 5.882242729246735e-06 -2.8130587759495876e-05 -2.4187251934380862e-05 5.3586170619424505e-05 1
479 2.3153993344971054e-05 2.1268129134254424e-05 3.5777479139732434e-05 7.0452137170888025e-06 1.445387292161304e-05 -3.45117688203834e-06 -7.966827264420105e-06 -4.23965931243226e-06 1
480 -9.2851566451644e-07 4.6012284715617496e-05 7.400826926065433e-06 4.626158084609385e-05 2.1499766251303876e-06 -5.835442605525763e-05 -2.3496358196155354e-06 6.848760332770765e-05 1
481 6.961211305458402e-05 1.3523636613835902e-05 1.4777662860763919e-05 -1.855033562224351e-05 -3.384518798867144e-05 -8.709234080851805e-06 2.28816098097153e-06 -4.68038875608349e-05 1
482 1.4444108961672848e-05 1.1686670408361617e-05 -1.0204329399723854e-05 9.87028177865227e-06 -3.0366708182714036e-05 1.7852843713832517e-05 -2.9593977426504876e-05 4.106835754844075e-05 1
483 -3.805768229799769e-05 -3.528746372645027e-05 1.0434270075795731e-05 4.1605831287440955e-05 7.87607590290427e-06 1.4071448004559778e-05 4.3842254182646205e-07 -2.5659961352879836e-05 1
484 5.577735724922702e-06 -8.797130937787159e-05 -3.196774919442179e-05 1.0043722982993662e-05 -2.8079449552199045e-05 7.988850168084035e-06 -3.2545568805527447e-05 7.409575502918867e-06 1
485 -2.811831505761747e-05 1.6219074162294e-05 8.092972389476625e-06 3.089457232485354e-05 -1.8891167910629813e-05 1.4035835061041822e-06 -2.452717895290696e-05 -1.0340131068610454e-05 1
486 -2.933013733147693e-05 -3.434173928734315e-05 -3.038757147114238e-05 -3.533793309131632e-05 -5.849370289268493e-05 -2.6408661587586447e-05 1.5687347416796114e-05 -3.9962463300332073e-05 1
487 -7.940138767256992e-05 3.400832094569588e-05 -1.591240124620635e-05 8.026150229120895e-06 1.6057928662512367e-05 1.6563153244532007e-05 -3.805785576520149e-05 -5.776491997487256e-06 1
488 -7.656395581741002e-05 5.784236628353229e-05 -3.9871881600390006e-05 -2.6196005471745505e-05 -2.6015021371037617e-05 -3.741651191807201e-05 3.3814847743913634e-05 6.05611975270874e-05 1
489 -2.280968401406964e-05 9.799509506987421e-06 -5.592313746815053e-05 -6.102717963052537e-06 -7.909135579036096e-06 -1.6282403159003615e-05 5.53438134940571e-06 9.879328570387159e-06 1
490 -1.6923369964071328e-05 2.4824433173372594e-05 -2.754054573935655e-05 1.6645827445167896e-05 3.1284398553826137e-07 2.2208938120866256e-05 1.9751888736805785e-05 -3.554405172617789e-05 1
491 -5.169226847670673e-05 2.0961559953855522e-05 -2.64066352072667e-05 1.8881294399402518e-05 8.782741899697944e-06 2.747959984463277e-05 9.912170435272958e-06 5.216239546834226e-06 1
492 3.354789230300508e-05 1.5997336217107164e-05 1.7025240859429703e-06 3.701132584826714e-05 2.8795220788197517e-06 -7.608515122948041e-06 -2.094558146944124e-05 1.7575636476135282e-05 1
493 3.812619325590838e-05 1.4586262490216617e-05 3.2697890594495966e-05 -4.92503757992894e-05 -1.38633437019787e-06 -1.0023728026109049e-06 -1.8174859310183674e-05 5.959652594954683e-05 1
494 4.6663459774678836e-05 -5.2231418713433224e-05 6.490528358376254e-07 -5.007034346314574e-05 -1.8996698133622878e-05 2.4580999236135104e-05 -1.5723633873319368e-05 -2.072187907000679e-05 1
495 7.534232851640678e-05 -4.7880338048792e-06 1.2924761804028546e-05 -1.1377933350966682e-05 -5.986776627908088e-06 -2.0103749039373977e-05 -2.4869327975716124e-05 -2.611041220771081e-05 1
496 1.1844208508892102e-05 -8.356922050844522e-05 -3.9092627963578724e-05 5.485066743847644e-06 5.864889522335927e-06 4.251981896070792e-05 -1.6708459208867566e-05 7.402514740581765e-06 1
497 2.6729063817861038e-05 -2.7758055308372737e-05 1.8608339718741906e-05 1.938072967126786e-05 8.1852773799385e-06 -6.390992626194889e-06 -8.938252713863377e-06 -3.419384746992648e-05 1
498 -5.027743248172839e-06 -1.7862592319127116e-05 -2.8099294060735854e-05 1.0998099167191606e-05 2.991569672467525e-05 -2.2701560808228752e-05 7.086035893615929e-06 -2.5852778488242758e-05 1
499 -2.1542011332482368e-07 1.8290802875238355e-05 1.5047391215161039e-05 -1.696970434605446e-05 2.529151034266617e-05 -6.143019341554976e-06 -1.6240092739870773e-05 -3.1332631558629074e-05 1
500 -2.3606470100524738e-05 5.5927602910820784e-05 6.833031413421856e-06 5.59707916603606e-05 3.5744686311760456e-05 -7.68819411792539e-06 -7.950685845176733e-06 1.1742417987133831e-05 1
501 -4.132387574022453e-05 7.851416698607174e-05 9.040013046089594e-06 6.41147277146332e-06 1.717384169427041e-05 4.307074708422648e-05 4.27388380468763e-06 -2.826009271784609e-06 1
502 -1.92472817974059e-06 3.8581974806679125e-05 -8.024496009593058e-06 1.2966121647550214e-07 4.884522898469965e-06 9.045323615124572e-06 -3.3914996273477854e-05 -3.856211519503901e-05 1
503 -7.023292677949745e-05 -2.4393818943987465e-05 -1.6095600349312564e-05 1.5867766052250106e-05 -4.223228908118459e-06 4.909865125254707e-06 -3.060758525105654e-05 -1.1541055073023629e-05 1
504 -2.1562022370795898e-05 -8.181963189724275e-06 -1.81143457046977e-05 4.04155965948884e-06 5.4971196337058305e-05 -4.3994823139095346e-07 -1.7329673653561136e-05 -4.344059734054006e-06 1
505 1.2625616719651601e-06 -3.495674340028662e-05 -7.838675169125448e-07 -3.608616992342099e-05 -2.4065761877148783e-05 -3.733380926787439e-06 -4.131699250560918e-06 -1.4154731871500016e-05 1
506 -2.0362291106401543e-05 -3.3758425721355864e-05 2.2235336413113132e-05 -2.480293380651272e-06 9.977580132456332e-06 -1.3540007535848026e-05 1.430239308996205e-05 9.393257440308918e-06 1
507 2.9114810636176345e-05 -2.8808515535275107e-06 1.4718390572028653e-05 -2.4604352164445064e-06 6.123480676111705e-06 2.6587723211288163e-05 -1.630186423506986e-05 -1.571019446742164e-05 1
508 4.2933963343586675e-05 6.068578226783639e-06 -2.0602662481600113e-05 -1.8690640853327091e-06 -2.34996935571962e-06 -5.538200289008677e-05 -5.489849731468993e-06 -3.932945821211658e-06 1
509 3.573968996454309e-05 5.845565811500806e-05 -3.0394957462721883e-05 -2.0615564280115318e-05 -6.530489495798336e-05 -1.2022916654353518e-05 -9.891088853150024e-06 -1.2749429408356406e-05 1
510 5.908367579506287e-05 4.6542031671849174e-05 1.9464181066826035e-06 -9.265326338496557e-06 2.5654741702671596e-05 -4.939464958962908e-07 -2.0456750972961448e-05 -4.290621693711379e-05 1
511 3.233770867942603e-05 6.22122637900043e-05 5.6913467238577244e-05 1.540258654736898e-06 -1.9133887878007608e-05 -2.9624130207105348e-05 1.379887240763997e-05 -4.4115401309606714e-05 1
512 4.576186658921262e-05 6.739773688470938e-05 1.0906986330821602e-05 -5.491541798463936e-06 1.4123516338670364e-05 4.273459278207499e-06 -1.9453096046514795e-05 4.6260308059375644e-05 1
513 5.038884231445966e-07 1.3907361296996314e-05 -6.046535706739287e-05 3.191177206952323e-05 3.671909361636455e-05 7.458446781659554e-07 1.3969275868443962e-05 1.396287954018907e-05 1
514 -3.320903318568619e-05 6.313355888236935e-06 -2.0215761746813886e-05 -1.5218923091133153e-05 2.817357858030747e-05 2.436644226750507e-05 -1.7659387552894817e-05 -1.8339408587526018e-05 1
515 -4.6676229557331563e-05 -6.362288339132865e-06 -2.4999619520259927e-05 8.917815975898814e-06 1.8671170265857367e-05 -2.2061362573275032e-06 2.5251592421623194e-05 -7.607754237244811e-06 1
516 -3.8557394339285635e-05 -4.925723637848943e-05 2.5429433690505132e-05 -1.9163011174471758e-05 8.74429544287648e-06 -1.7829016781483691e-06 -2.6319576577791567e-05 -1.522757859558302e-05 1
517 -1.8003027373560433e-05 -2.1094907331745956e-05 -2.522875853417105e-05 7.633207183717297e-06 -3.652850789863628e-06 8.635116005610455e-05 7.1280960335568106e-06 -9.515621176659112e-06 1
518 1.3257772776670588e-05 -6.0505454946480964e-05 2.358003909527436e-06 4.986071236702682e-05 -2.9049821089938517e-06 -4.333252611620197e-05 -9.897949110264944e-06 3.636295102397592e-05 1
519 1.4133275416931732e-06 -8.747567334945319e-06 -1.71310701794756e-05 -1.3992506778745334e-05 9.029947101349904e-06 3.345490332346633e-05 2.6310575319979276e-05 1.1400304552728212e-05 1
520 -4.547724627980815e-05 -1.2057340142723717e-05 1.3331300530344085e-05 -3.363677744832236e-05 -5.639175526715107e-06 7.603761154654425e-06 -2.8439849884067222e-05 -2.560655835897159e-05 1
521 8.357911826588545e-06 4.762059392627632e-05 2.653796926034392e-05 1.5176335869263798e-05 1.8414148748048632e-06 -1.8654868838926234e-05 -2.677267489611298e-05 -1.277192720822869e-05 1
522 4.488986431468366e-05 3.053820322704844e-05 -5.2497549643128065e-05 -1.9641925706687575e-05 3.0112688790153896e-05 1.980376195103486e-06 -3.542522282757465e-05 5.889552953995379e-05 1
523 5.3002940953235696e-05 4.391362131391896e-05 9.988118901128362e-06 -9.189886654004652e-06 -1.818934204553486e-05 5.304187462664851e-05 2.5080146740443768e-05 2.0548430027716914e-05 1
524 6.917741508342148e-05 -2.4088753484726666e-05 3.193825479350684e-05 -2.1078316450293735e-05 7.082169953766143e-06 -4.0984747636614225e-05 -5.102147126618799e-05 7.957280066327868e-06 1
525 -6.39584457959184e-07 -8.40719917479493e-05 1.3515237573676889e-05 5.3002019276269734e-05 3.473900646450154e-05 -6.432947131641813e-06 2.2113266742364303e-07 2.2192656419597833e-05 1
526 5.2723174970866724e-05 -4.37552955775266e-05 8.544428931143574e-07 7.5153701691134115e-06 1.3846908006970796e-05 -3.326911050281673e-06 -3.0021311267186067e-06 3.4495808243859706e-05 1
527 4.879215882325677e-05 -1.3566940304210457e-05 4.297772675057322e-05 -9.661144055660426e-06 4.0574336215734515e-05 1.3562886088388762e-05 8.177565305536475e-05 -2.9812048169561945e-05 1
528 -2.540994674757252e-05 -2.7211299860802337e-06 9.930851324474798e-06 4.8753474604375466e-05 -1.6709367082488347e-05 2.262296296734711e-05 2.9061575117049895e-05 1.761619580551619e-05 1
529 -2.5596038131096344e-05 2.498390714051697e-05 3.0733123282885344e-05 1.4989612994759436e-05 5.108692180223854e-06 5.652700251109282e-06 -1.968394805984443e-06 1.6019628356316046e-05 1
530 -1.4872237165051347e-05 -3.098920921454773e-05 -2.6214791120689802e-05 -1.8800906341307303e-05 5.553306063736295e-06 -6.738959108801831e-07 5.3835948322187305e-06 1.2520328338652776e-05 1
531 -6.238607156079044e-05 7.696345192220697e-05 -6.69277067618686e-06 -1.0835674619537725e-05 1.2059655933311311e-05 -4.591275505937682e-05 -1.9763361243072985e-05 2.4526819967295826e-05 1
532 -8.303638441863699e-05 5.729633823399141e-05 3.777841415897837e-05 -9.236383445593708e-06 7.295319185657752e-06 2.7977177121275668e-05 -1.1669729701087993e-05 2.1694388013154538e-05 1
533 -5.463033328288871e-05 2.0770550641123968e-05 -1.9983411608124346e-05 8.566179979870086e-06 2.8949226314138738e-05 -4.602823302929107e-06 -3.178122899781008e-05 -2.7067670557170395e-05 1
534 -9.190548087592327e-06 6.0946950150999894e-05 9.843124982859938e-06 -9.672413766281317e-06 1.9154599171257104e-05 -5.987465889668659e-06 -9.45713043410516e-06 -2.3961477642381593e-05 1
535 3.226804896610729e-05 -7.00263286264327e-05 1.994648000698173e-05 -1.1593623444938423e-05 -1.0258518286290319e-05 4.2307878902945316e-05 -1.7853277305001285e-05 -1.7001728850710256e-05 1
536 2.2120182186027778e-05 -6.600516614585041e-06 -1.1046394557321736e-05 -3.934647326339714e-05 -2.1642454522044138e-05 3.203334641161299e-05 1.8694197283877863e-06 1.1277182092595551e-05 1
537 1.3984392471710828e-05 -4.298089408039366e-05 4.1939236246885274e-05 -4.704796426277017e-06 -1.1084246988178173e-05 2.740355915888349e-05 -1.8059008971684633e-05 -1.4868183594349918e-05 1
538 1.1584019933751006e-05 -1.1994775280457792e-05 6.49028369758036e-06 5.22917272348872e-05 8.406206158809261e-06 -5.9451349068770014e-05 8.157473585789024e-06 9.469998622399707e-07 1
539 2.3653520016923377e-05 1.028174677014902e-05 -7.169571918699845e-07 -1.3153023263847252e-06 1.5326105244269654e-05 -1.3552019929862526e-05 -2.3692158390979392e-05 7.559453631555979e-05 1
540 4.377157065755837e-06 3.0760426082607826e-05 -3.7391506271884185e-05 2.911710376285548e-06 -2.3330638767233377e-05 -1.1061823571250274e-05 2.6126616644278097e-05 1.1800239209451843e-05 1
541 2.81132239609092e-05 -1.2701896392336503e-05 4.5922379245725324e-05 -2.979703277354688e-05 3.8214020357346624e-05 2.5538596649537155e-05 1.4433318544617003e-05 -2.1374619522709536e-05 1
542 1.023781491009373e-05 1.4317590805610586e-05 7.259892876322954e-07 -6.246806477138997e-06 -5.096526266431021e-05 2.8044603774614704e-05 -2.027678913734029e-06 -1.2120009987555925e-05 1
543 -3.6945518563115536e-05 6.589433026443817e-05 -2.2343908457361806e-05 -5.637938896185109e-05 1.0178245080206903e-05 1.2977574948920543e-05 -4.990795616940823e-06 -2.8697571879750223e-05 1
544 -3.646890251064754e-05 -2.215801950801591e-05 -2.5680764917191485e-05 -1.876744841260403e-05 2.1098476772288902e-05 -9.065273760922928e-06 -1.1196660294411515e-05 4.886731288528116e-05 1
545 -3.6552201555774436e-05 1.1407918939713116e-05 -9.242518630219373e-06 -1.4909291690919444e-05 -5.4660161000428764e-05 2.4218513298088957e-05 1.1207742643909479e-05 -4.479149830335333e-06 1
546 -5.343392154722081e-05 -1.6279714985714742e-05 -3.886775182699633e-05 -1.4747033288845138e-05 -2.8407571572313264e-05 4.4287732062168654e-05 2.1891388296332517e-05 -5.5067316028384105e-05 1
547 -7.779446984527513e-05 -3.227673548708698e-05 -1.1811005301810619e-05 -3.310955520192221e-05 4.861905594126224e-05 7.81349784956448e-06 1.1870408071577289e-05 -1.7300373730805347e-05 1
548 -1.149513692886029e-05 -6.825479292458168e-05 -7.083579342687485e-06 1.5275048995631498e-05 -4.0724939126507495e-05 3.992569649627457e-05 4.559730368096895e-06 3.202360521951061e-05 1
549 -2.8381140075138305e-05 -4.497532589969926e-05 -2.9047505539995308e-05 6.257441816620972e-06 1.6495825479561521e-06 -1.1610295480779514e-05 -2.5351729822131987e-05 -3.1664906743271064e-05 1
550 -2.761510545937448e-06 -7.60642687279434e-06 -1.7140174808956558e-05 3.867723715329024e-05 -2.058141954818348e-06 3.175107334817313e-05 -1.3331304567067416e-05 6.119407094966422e-06 1
551 1.8544476505614826e-05 -1.1800063236197144e-05 3.5708457656597824e-05 -3.3788401758103974e-06 1.8660455490824014e-05 -1.8800718061538987e-05 -4.121109539494116e-06 -2.167130899808387e-05 1
552 5.973365315268625e-05 5.624061069040003e-05 9.176338167022205e-06 3.395460367762448e-05 2.8908532422475575e-05 1.9133563403407134e-05 -3.554318367593657e-05 -1.739197798791709e-05 1
553 2.167100854307579e-05 4.327014798765162e-05 4.266298543751286e-06 -3.476281084076487e-05 -4.718605325280689e-06 -3.7352808392969465e-05 -1.328912201743997e-06 -4.138431259967962e-05 1
554 4.756316319741857e-05 3.755309172495451e-05 4.769871233367204e-05 2.119683223743356e-05 -1.057285639556257e-05 2.045175233186215e-05 -3.4941597023629464e-05 -2.4061815092027136e-05 1
555 4.526527909472186e-05 -4.2332069960391634e-05 -9.290196233470759e-07 -2.550658230296052e-05 2.532676378831589e-06 -2.6943408951181586e-05 1.060620343637972e-05 4.831855916847405e-07 1
556 3.556307612864967e-05 1.0951313987421771e-06 -1.9216070124036657e-05 -6.172146395682073e-06 -3.360590992541829e-05 1.0153431367636e-05 1.4746256157881808e-05 6.172990091732045e-05 1
557 -2.0538538758813894e-05 -3.6010390091146006e-05 -1.439396311095539e-05 5.302842528280602e-06 9.542263361990342e-06 -1.3343711107127694e-06 2.7158147921825806e-05 -1.542448759386944e-05 1
558 -1.3227778958500622e-06 -2.8409348903578956e-05 -3.007479974736631e-07 -7.873416018928637e-06 6.066669396828424e-05 -2.0425216268551985e-05 7.448329424210367e-06 -1.8755476756053312e-05 1
559 2.1848789624152534e-07 -1.5463003486742122e-05 -1.6958746971028603e-05 1.281487483578071e-05 6.442393031913885e-06 -1.2915619049368469e-05 1.8954105430704333e-05 9.732634777610254e-06 1
560 -3.3398372629393875e-05 1.3531501304456291e-05 1.0776362314991282e-05 5.734691537311487e-06 1.4773333256254336e-06 -1.602539789968909e-05 4.2344156019062314e-05 -2.626049858371368e-05 1
561 -8.962669072363224e-06 1.8149747791482547e-05 4.3988681736232495e-05 -2.2587063430596017e-05 -1.83815815440083e-05 -2.4245451581545635e-05 8.086626273765258e-06 -3.4326266489216046e-05 1
562 -4.947527350297078e-05 -1.9460663612737502e-05 6.010533853202263e-06 -1.2505371468906565e-05 -3.720141859829633e-05 2.7140235074351465e-05 -3.269167245962348e-05 1.9923592250705383e-05 1
563 -3.441192224055837e-05 6.188240301900971e-05 1.8738763473153654e-05 -2.5201196771850704e-05 -2.292706380525766e-05 1.513813013060775e-05 -6.559453267754171e-06 -4.233562675534139e-06 1
564 1.9324689959213277e-05 -4.541635583330821e-08 2.282344304386362e-06 2.386569484130765e-05 2.022793720964001e-05 -3.990316688016813e-06 -7.222647021316456e-06 -4.347038656302329e-05 1
565 -2.4246818790986406e-05 2.2262522043488656e-05 -3.447054723555905e-06 1.8731769641556597e-06 2.5981340240851515e-05 -2.9683077726556864e-05 -5.90450755581625e-06 4.717774085280443e-06 1
566 4.251753681611889e-06 2.450957842280481e-05 2.2714670040328688e-05 7.253333177218888e-06 4.4855794483214667e-05 -3.747238199025356e-05 -1.931570276420443e-07 9.158424223351527e-06 1
567 9.801704014714577e-06 -4.4266863773946106e-05 -2.7664562344696953e-05 1.726393295685633e-05 2.6445869203222668e-05 6.8083350282082084e-06 -4.6319945376623645e-05 -2.4169838029150867e-05 1
568 4.7751563749919946e-05 -3.145399362108094e-05 -6.735006544231221e-05 3.107075959670601e-05 3.416412656345809e-06 -2.0476866600001125e-05 2.4873889939166607e-05 -1.6938500322672475e-05 1
569 1.174205666330025e-05 -3.739457425149606e-05 4.4525961481057374e-05 4.058967944932216e-05 8.992787472602666e-06 1.1559641471257994e-05 1.9787473302120626e-05 -3.1424591884233726e-05 1
570 1.8570668805065996e-05 -1.6946699649917293e-05 7.961951669914518e-06 -5.6866906901834335e-06 1.253020817785536e-05 2.9525866251615025e-06 -7.68257567705325e-05 4.472292792629515e-06 1
571 1.2980155065598995e-05 2.3919984754127613e-05 -2.564648655214491e-06 4.1054042298260154e-05 7.784328228041528e-06 1.0941832504827657e-05 2.611229735126422e-05 9.06482499241497e-06 1
572 -3.057969553769137e-05 -3.591866128002922e-05 -1.1928022550452037e-05 1.9023638147027914e-05 -8.827408285445146e-06 2.002945930704324e-05 3.718204398006825e-06 3.2201651756554615e-05 1
573 -4.797628580696256e-05 5.967489901482323e-05 1.264712661338398e-05 3.7540046815779826e-05 -4.266593265835695e-05 -1.146020686382894e-05 2.1212902634712596e-05 3.86474119944662e-05 1
574 -3.339202336617959e-05 2.915676042165625e-05 1.892795921686112e-05 2.1717566880792076e-05 -8.99154196668268e-06 8.257682804438655e-06 2.9513181560299235e-05 4.7261474831861297e-05 1
575 -1.650804410803504e-05 3.044532237259347e-05 -1.3518794009477053e-06 1.3934913929840574e-05 -2.8918210619862543e-06 4.741012475559706e-06 -2.644690661327187e-05 3.242642991227898e-05 1
576 -6.942768432608184e-05 -1.6447702796870498e-05 2.4398315212953454e-06 4.977467199721597e-05 -1.0567074621308184e-05 -1.665039534900991e-05 -1.3770422933344845e-05 4.147242919028281e-05 1
577 -8.895332903202869e-05 -5.034407940718415e-05 6.828221772898879e-05 1.4772051837290923e-05 -2.76496237334805e-05 -1.0479495543692883e-06 1.6863641516965418e-06 2.1153131147640147e-05 1
578 2.3836193087462418e-05 -3.0505314859738786e-05 -1.349470757532402e-05 1.967711105245511e-05 -1.7456317421571527e-05 -2.5833437399725734e-05 -4.3997721798911126e-05 -3.912820986251002e-05 1
579 -4.082017149376916e-06 -6.158280644706346e-05 7.830913184367934e-06 -2.9985045645600884e-05 -7.85916575506186e-05 -2.6097794364736646e-05 -1.1796491193035485e-05 -1.5136237196799136e-05 1
580 6.569547639966432e-05 -1.817135946855152e-05 2.202308657997995e-05 -4.745649920215428e-07 -1.0576181418149684e-06 -2.0884507221200925e-05 -1.469566289519179e-06 -1.9127403172435424e-05 1
581 3.897193155925072e-05 -8.771099307379116e-06 -2.3615698329790007e-05 2.4797358492514882e-05 1.0671012000535634e-05 -1.1201568353556206e-05 3.6373261758827507e-06 -2.095563037549091e-06 1
582 2.747767655400186e-05 3.157535914648734e-05 -1.5525293870184363e-05 -2.3623345890502483e-05 -4.0569183256663124e-05 -8.965183838465768e-06 1.4174266489593085e-05 -1.7366483834471493e-05 1
583 9.435044285554687e-05 4.951181272012795e-05 3.2608253316511956e-05 1.9881075301843965e-05 4.632162437346432e-05 -1.9675049586813555e-05 -6.401843464146554e-05 -1.1153140208822078e-05 1
584 3.268550355471158e-05 1.9253938202066173e-05 6.886815274194592e-06 3.302275006674681e-05 9.551439361562491e-06 1.997282318977554e-05 -2.3489068546318972e-05 -2.738484223040092e-05 1
585 6.465995799999406e-05 2.7843964559031928e-05 -1.5580729586153373e-05 -1.5534862338677954e-05 -1.622807804095644e-05 -1.7723975526146045e-05 -3.2078695065091495e-05 -3.751051005551272e-05 1
586 7.846245905354785e-06 -9.001685297301185e-06 2.7678982136082383e-05 7.3269163316729145e-06 6.632942001949578e-06 -1.8578010188861267e-05 -3.0257103944993927e-06 9.025027590786009e-06 1
587 -9.900478783341702e-06 -2.317703584203307e-05 2.6978094483105227e-05 1.9973272269856782e-07 1.9821177962941996e-05 -1.2246305214728758e-05 -4.5314709164216046e-05 6.708974700463067e-06 1
588 -1.5158698856309434e-05 -3.510117317343593e-05 1.0554666535936e-05 -8.714674148874682e-06 -2.016865628613981e-05 1.3793206726094513e-05 1.0661185404956877e-05 -1.4022477271095658e-05 1
589 7.383348085801374e-07 -5.605044020575689e-05 -1.4588084469776012e-05 4.091063030854163e-05 2.1714548443347817e-05 -8.950232647275565e-06 7.1845177410887626e-06 3.869806113095958e-06 1
590 -0.00010520005925940922 -4.63518005787311e-05 -1.2711654277320381e-06 -8.915286913982656e-06 6.177564120760515e-06 2.8237057823698e-05 -8.038394616348187e-06 -2.6441369903071623e-05 1
591 -1.3400936726259563e-05 -2.3387803544021633e-05 -3.901587520547567e-06 -7.294342978826966e-06 5.604594500027465e-05 -5.601760652494863e-05 -9.708347578316154e-06 -9.22256412098013e-08 1
592 -2.5796527016310538e-05 2.4861872834441965e-05 2.0331441967990986e-05 -1.1938654622135154e-06 -6.766843883592354e-06 -2.798920855791175e-06 -2.619666341195268e-06 -1.9593257031440665e-06 1
593 -8.409510175568285e-06 3.62321851951183e-05 1.8830301620696627e-05 -3.075650368996442e-05 -2.6266597480828724e-05 -4.3712950737088094e-05 2.1659935008939987e-05 6.258082329761579e-06 1
594 3.433981360280157e-05 8.217206779595006e-06 4.462370307200346e-05 -1.5221272703633943e-05 4.205145177781397e-06 2.13596165169593e-05 -2.4674493894901798e-05 -1.365810896281667e-05 1
595 3.4254432221607335e-05 0.00010469611869787872 7.5281185713006074e-06 4.015902876576796e-05 3.014182862979889e-05 9.20025091236297e-06 -2.472989429076697e-05 2.649384027045588e-05 1
596 -1.3025077833702243e-05 4.1646557987417075e-05 5.000132705456382e-06 -6.625558868245441e-05 -8.512652375795973e-06 1.6348695523073512e-05 -5.925596825994168e-06 1.7875145274839332e-05 1
597 5.401029779711755e-06 -4.3181926885273813e-05 -1.7861350761901347e-06 7.891416822478697e-07 -8.709608776558036e-06 3.068227866605481e-05 -2.125518437847644e-05 7.829140183308737e-06 1
598 2.4888853418883366e-05 -6.0011370406339144e-05 -3.2975754591712807e-05 2.977754062157852e-07 4.95299999671741e-05 1.4481745297470275e-05 -4.314087062861582e-05 -7.776220162798344e-05 1
599 4.4986259645994164e-05 -5.1474826023333455e-05 2.853164923775924e-05 -2.2017948017786038e-05 8.755312446463155e-06 2.1154336575696568e-05 -1.1186590955162046e-05 -1.0652139255776636e-05 1
600 1.207755522441205e-05 -1.7234311158928984e-05 -3.583501127977735e-07 2.4349908443987163e-05 -1.154837973167575e-05 -3.320988013657774e-05 4.94243842028295e-05 -1.511584341356116e-05 1
601 -2.0733109549780047e-05 -2.6088599980529816e-06 1.6795277413495295e-06 -9.667091062207072e-06 -4.35847423725226e-07 -9.94055785704349e-07 4.370483175520174e-06 -5.8937186474682905e-05 1
602 2.418137799179473e-05 -8.64652309841705e-06 1.4515565486174634e-05 -3.445253353835061e-05 -1.1775006531231256e-05 -1.6807896658010363e-05 3.674309411271363e-05 -1.464534017089707e-05 1
603 -1.2298773624991582e-05 2.2415772508960627e-05 -1.1315473491348601e-05 -6.138754130017149e-06 3.209612817073251e-05 -4.724631647575297e-05 -3.289158888186082e-05 -4.868262914224542e-05 1
604 -6.134396975845011e-05 3.268148233234711e-05 -4.036203135225973e-05 -1.8353693665366726e-05 -5.036786202333538e-05 -2.5449718094192033e-05 3.0010509997755014e-05 1.008970175702757e-05 1
605 -2.2862133186094622e-05 6.054310148845418e-06 -3.8402123976118104e-05 -2.8478901888357017e-05 -1.0802456724003746e-06 2.170441949316671e-05 2.255918542838301e-05 1.5765309062083325e-05 1
606 -3.4141306450584686e-05 1.5249132542000718e-05 -8.033563250931148e-06 -5.0297440873687565e-06 5.092819742399533e-05 -4.4050005925090313e-05 -5.866920398056522e-06 3.029372267990392e-05 1
607 -5.620236708175428e-05 -9.36951353236633e-06 -1.3225962439190989e-05 -5.582243051349613e-06 -3.9898928990155435e-05 1.4882151508450987e-05 1.6657182062828602e-05 1.2709383125448692e-05 1
608 -1.923354424435803e-05 -2.3653126975083014e-05 -2.248600598922719e-05 -8.314916519287817e-06 5.383669817927195e-05 2.3923844399063995e-06 -2.9688164399679336e-05 4.508383516597847e-06 1
609 -1.9684272719650712e-05 -8.925409668021778e-05 -2.6028078398719773e-05 -1.1107736304892088e-05 2.342422488973004e-05 1.4459954950420979e-05 1.3074883206183208e-05 -2.747311413976356e-05 1
610 3.135210887464993e-05 -2.8998503495761237e-05 -1.5707999634710326e-05 -6.959161007527461e-06 1.1033967313248738e-05 -8.71931703003255e-06 5.651489727550631e-06 3.981821140048921e-05 1
611 4.9174977221023e-05 1.2685478204294263e-05 1.3984251682683954e-05 -3.668104983716917e-05 -2.7553425731588107e-05 -2.083989707674741e-05 -2.1370872923319586e-05 -2.257243652670355e-06 1
612 2.686010682569077e-05 3.820251753397698e-05 7.704377218127056e-06 -1.1141988901330246e-05 -5.205603109074686e-05 1.7647393854334486e-06 6.442548423747822e-07 4.5732188384739425e-06 1
613 9.158914137567722e-05 4.271897793987275e-05 1.9626522956249646e-05 -2.4051928251789996e-05 -1.2824868729918588e-05 -2.3711151732125544e-06 -1.938517810025884e-05 1.2511613124627952e-05 1
614 1.887244494113806e-05 4.359113158283e-06 2.9920417727403112e-05 2.5577583452215075e-06 -4.3226778668556286e-05 -1.2835714586242365e-06 7.030161398072621e-06 2.4319809035893514e-05 1
615 -5.086864714893936e-06 6.627950632186197e-05 4.678549669255393e-06 -3.2876365225939486e-05 -3.5379169337062847e-05 2.8063996753733718e-05 2.989960445954423e-05 8.072730760118075e-06 1
616 2.111143412291184e-05 5.0442215782628666e-05 1.7090718236993027e-05 -2.2782787218341796e-05 4.328571877580859e-05 1.3407535805206825e-05 -9.645969365290542e-06 -1.670675013263245e-05 1
617 -1.1097881564076067e-05 -5.235206737637997e-05 1.7491831883821566e-05 -2.3839270367350673e-05 9.265202720607169e-06 -1.3040508433953988e-05 -6.6104678181175915e-06 -1.892274681912662e-05 1
618 -3.848178252020132e-05 4.277431326903747e-05 3.462649067621602e-05 8.861973874886416e-06 -6.323566391238091e-07 2.1105029767322127e-05 2.8249259852688913e-05 -2.074545955518823e-05 1
619 -4.9950910848638085e-05 -8.004545926098135e-05 2.8077552756522373e-05 5.162560644252139e-05 2.002065615577138e-06 -5.3125253122575414e-05 1.5222262914425778e-05 -2.2602229153727008e-05 1
620 -4.347453531418813e-05 -9.764757975676602e-06 6.36385313781811e-06 -1.2202719383465044e-05 -1.624014081504161e-05 3.1459013805208187e-06 -1.0236638812809188e-05 -2.7730928340075186e-05 1
621 -1.566724123931555e-05 -3.286686467798223e-05 -4.452586670490834e-06 -3.533771495620463e-05 2.4726615534388488e-05 -6.847028592358334e-05 -1.115912887571088e-05 -1.5504961363847896e-05 1
622 4.653403950946102e-06 4.089088822644993e-06 2.8169120206525883e-05 -1.7810121833804005e-05 1.4664558433337045e-05 4.895459697036528e-06 -4.2788484379580585e-05 4.751350638585275e-05 1
623 -1.1275979457240604e-05 2.8568872765125316e-05 9.748998604943693e-06 6.890919558226928e-06 -1.2364422054040189e-05 2.068131627851256e-05 -3.900918684857739e-05 -1.645719716848073e-06 1
624 1.4974038620532707e-05 1.2244975445160988e-05 1.0718694686338644e-05 2.693696356799208e-05 -8.581394045921651e-06 1.9517027248144438e-05 1.243516636114962e-06 -2.2318305230950214e-05 1
625 2.3391561506130766e-05 1.7079338067880937e-05 -1.7416497812636166e-05 1.0712073216395845e-05 5.866154692618981e-06 -3.976624245673545e-05 -4.128814988098395e-05 1.061711133014386e-05 1
626 3.962485000358238e-06 1.3477380171710075e-05 1.9523289452729708e-05 -3.177382093513898e-05 -3.528843136440463e-05 4.186079205988238e-05 8.789269574061477e-06 -1.0481016416831773e-05 1
627 8.125067165917834e-07 1.5089084968514928e-05 -2.9764308402832757e-05 2.2085304352264758e-05 -1.9418778840158022e-05 2.7338364705406677e-05 -1.0015722994250282e-05 -2.6083754590432868e-05 1
628 7.145176719198665e-06 -7.212952189790341e-05 -3.0192144168501733e-06 -4.252979778253965e-06 2.0618568663699193e-05 -4.715762319958449e-05 2.9046659021588697e-05 2.05149823749414e-05 1
629 1.2244341619312269e-05 -1.702994344380529e-05 2.5347420852568886e-05 -3.678110087267263e-05 1.7826189130113326e-05 -1.9279069052498633e-05 -4.128504581057341e-05 -2.8103512954109017e-05 1
630 -2.2410675300027676e-05 -4.7302612774570644e-05 9.401838292394998e-06 -4.520593887510043e-05 -5.317743859039655e-05 3.43096858535894e-05 2.2595003235035862e-05 -2.6232420897845188e-05 1
631 -4.730306012310884e-05 -3.2005060903788566e-07 1.0480015207265138e-05 3.7055774045869603e-06 2.737885203281493e-05 -1.826781188003051e-05 7.794612166157175e-07 -4.462159573097909e-07 1
632 -4.767472677835181e-05 -2.9245319315523305e-05 1.8217059457122684e-06 8.601873996381885e-07 -2.6210691063363145e-05 2.0044897747511187e-05 -2.4409630194156458e-05 -5.455836113679347e-06 1
633 -3.1061757850021825e-05 1.8805742791291888e-05 -5.297759850543332e-05 2.2272745373236456e-05 -1.6924758690304106e-05 3.0499082369426357e-05 -1.195412311290386e-05 -1.2210896433502628e-06 1
